#t	L(t)	L_*(t)
0.0	0.7746719907545879	0.7688420797004855
2.0042741453454188e-05	0.7746705107916917	0.7688374674681357
2.6811735686809146e-05	0.7743358691731711	0.7677884908446225
3.3168123569862125e-05	0.7742031593124424	0.7673690802276528
3.943631280545414e-05	0.7740677486117867	0.7669390893302168
4.5545953964600536e-05	0.7739228067807906	0.7664765082704905
5.151165509002347e-05	0.7737693815797724	0.7659841896267928
5.732944421028607e-05	0.7736066629044663	0.7654590013886401
6.299435257655344e-05	0.7734342674057225	0.7648990867704101
6.850389631177318e-05	0.7732518662250999	0.7643026724534963
7.385864463943374e-05	0.7730590800641879	0.763667713971585
7.905332379348286e-05	0.7728554284482101	0.7629917035859481
8.40261971245275e-05	0.7726406663444194	0.7622727663640183
8.878839327574722e-05	0.7724172621278389	0.7615180804322986
9.333655363782054e-05	0.7721849740640375	0.7607257229877408
9.767099186182286e-05	0.7719442870356076	0.7598961225291863
0.00010179200836210008	0.7716956410944479	0.7590294699139799
0.00010570067163970289	0.7714396035062563	0.7581263067556372
0.00010939867756886053	0.7711768284081214	0.7571873932293058
0.00011288838238236944	0.7709080609159087	0.7562137293581095
0.00011617278924609065	0.7706341290476665	0.755206534615824
0.00011925553278595107	0.7703559358677344	0.7541672284503789
0.00012214085421500217	0.7700744493215963	0.7530974021652546
0.00012483356968350808	0.7697906904546505	0.7519987837829694
0.00012733903180130437	0.7695057200930492	0.7508731951207519
0.00012966308646067165	0.7692206243300903	0.7497225010822823
0.0001318120251075567	0.7689364989855813	0.7485485502486361
0.00013369439076865212	0.7686544334233634	0.7473531064438452
0.00013535154818827987	0.7683897884045932	0.7462009198002284
0.00013682123528232845	0.7681411930371894	0.7450881633494268
0.0001381317530651515	0.7679066907753516	0.7440079093659867
0.00013930489983153527	0.7676848450014241	0.7429549818910426
0.00014035808955951474	0.7674745900382508	0.7419254885438762
0.00014130562904192466	0.7672750873791133	0.7409162918141444
0.00014215979579649496	0.7670856417804619	0.7399246947897798
0.0001429306862811274	0.7669055927625403	0.7389479267042098
0.00014362702946538896	0.766734425165254	0.7379837699181043
0.00014425645324516516	0.766571667339011	0.7370300732437416
0.00014482566857132724	0.7664168778073583	0.7360846953475321
0.00014534061424695044	0.7662696396934582	0.7351454845520433
0.00014580657081512355	0.7661295566875872	0.734210263883271
0.0001462282519918803	0.7659962505586009	0.7332768226970193
0.00014660987945483374	0.765869359629428	0.732342912512696
0.00014695524447555863	0.7657485378096203	0.731406245139693
0.0001472677597273407	0.7656334540902935	0.7304644930424503
0.000147550502944771	0.7655237922009658	0.7295152901385118
0.00014780625434509783	0.7654192504526514	0.7285562334830192
0.0001480375287656115	0.7653195415838114	0.72758488453386
0.00014824660357654914	0.7652243926422015	0.7265987703681382
0.00014843554304879247	0.7651335448245249	0.7255953842264232
0.00014860621972550867	0.765046753269289	0.7245721853320349
0.0001487603332814922	0.7649637868047244	0.7235265980193888
0.00014889942727821595	0.7648844276397035	0.7224560100418234
0.00014902490401089846	0.7648084709782494	0.7213577697303865
0.0001491380378138369	0.7647357246166435	0.7202291827272229
0.00014923998695631934	0.7646660084712487	0.7190675075508871
0.00014933180433071658	0.7645991540829717	0.7178699505399528
0.0001494144470830308	0.7645350040927498	0.7166336600484521
0.00014948879334362046	0.7644734116924592	0.7153557198564002
0.00014955563365492917	0.764414233442903	0.7140329882757948
0.0001496156846238959	0.7643573408600893	0.7126623342519465
0.00014966959741192544	0.7643026158923508	0.7112405662661943
0.0001497179637039129	0.7642499489024738	0.7097643948896906
0.0001497613210014847	0.7641992380097151	0.7082304207326019
0.00014980015742854102	0.7641503885560046	0.7066351241831874
0.00014983491610111733	0.764103312599375	0.7049748549131922
0.00014986599911889084	0.7640579284357217	0.7032458212685417
0.00014989377119885948	0.7640141601316774	0.7014440789264804
0.00014991856299094065	0.7639719370884726	0.6995655194724313
0.00014994067410824312	0.770652408978342	0.7432526350815213
0.00015340864648634087	0.770648323538263	0.7432318555646991
0.00015452653592670592	0.7699447687611786	0.739450565370918
0.00015535934507907202	0.7696851041235924	0.7379345627306487
0.00015609465995909317	0.7694779355954313	0.7366678648425562
0.00015675564744060928	0.7692835096902421	0.735426765477528
0.00015735155325925858	0.769097970764704	0.734189386446691
0.00015788921540624919	0.7689204977822176	0.7329515429456522
0.0001583746109012759	0.7687506740943403	0.7317114845869714
0.00015881300702868335	0.768588127727768	0.7304676783828612
0.00015920906912956552	0.7684325205262773	0.7292187565337667
0.00015956694778313698	0.7682835428014758	0.7279634929574503
0.00015989034913725864	0.7681409087314957	0.7267007777959378
0.0001601825924979722	0.7680043527098764	0.7254295924743761
0.00016044665831028987	0.767873626378627	0.7241489844069461
0.0001606852284134712	0.7677484960776975	0.7228580399620598
0.0001609007202766232	0.7676287406929543	0.7215558563832961
0.00016109531626834288	0.7675141497729209	0.7202415122653995
0.00016127098901180583	0.7674045219328075	0.7189140376565553
0.00016142952335821076	0.7672996634435094	0.7175723835366281
0.00016157253562275477	0.7671993870783931	0.7162153924101958
0.00016170149051937503	0.7671035111614369	0.7148417703323497
0.00016181771610451466	0.767011858804362	0.7134500610692993
0.00016192241704226948	0.766924257349089	0.7120386234676078
0.0001620166864156499	0.766840537986706	0.7106056124064861
0.00016210151880497476	0.7667605355428311	0.709148963817543
0.00016217782083105778	0.7666840860619792	0.7076663369552163
0.00016224640816029398	0.7666110250503758	0.7061550533398168
0.00016230802077576474	0.7665411984513845	0.7046123080036145
0.00016236333044549077	0.766474456704166	0.7030350641738358
0.00016241294697233764	0.7664106544828482	0.7014200467595404
0.000162457423815823	0.7663496509302636	0.699763746514836
0.000162497263179809	0.7662913099262433	0.6980624261878022
0.0001625329206301462	0.7662355003468347	0.6963121275139675
0.00016256480929442019	0.766182096290432	0.6945086781809077
0.0001625933036734778	0.7661309772528052	0.6926476979001175
0.00016261874311293372	0.7660820282623565	0.6907246036955053
0.00016264143496613463	0.7660351399572155	0.6887346135936302
0.0001626616574726148	0.7728237950192172	0.7324959891142855
0.00016294636476788665	0.7728154855793636	0.732381348443734
0.00016310302088546488	0.7726920029966493	0.730568378619366
0.00016323636361556795	0.7726179065760367	0.7293700088893197
0.00016335581993312857	0.7725504917741721	0.7281959619239832
0.00016346327518362033	0.7724859856097869	0.7269881565376186
0.00016355992254018001	0.7724239468921761	0.7257388678544408
0.0001636468034088536	0.7723642197949295	0.7244447920552517
0.00016372485874348398	0.7723066812982742	0.7231029485583095
0.00016379494142107885	0.7722512195604069	0.7217103065776852
0.0001638578247223032	0.7721977314526205	0.7202637427508735
0.0001639142097584988	0.7721461217345488	0.7187600282445903
0.00016396473214994048	0.7720963024043338	0.7171958182339025
0.00016400996805140649	0.7720481921027416	0.7155676413853669
0.00016405043960762055	0.7720017155627861	0.7138718892597433
0.00016408661989048226	0.771956803092816	0.7121048053062511
0.0001641189373738486	0.7719133901000171	0.7102624737273092
0.00016414778000106538	0.7718714166520846	0.7083408082656354
0.0001641734988752289	0.7787574855932369	0.7534638990260465
0.00016987818681609345	0.7787540010770915	0.7534486871882111
0.00017191897588057371	0.777908687675201	0.7496293960111879
0.00017347021504158144	0.7775648321336761	0.7479920580699185
0.00017483771215803996	0.777285253158408	0.7466183757671688
0.0001760640860176044	0.7770237960134742	0.7452949672453026
0.00017716755436851897	0.7767757080766127	0.7440003311953512
0.00017816243186548372	0.7765399629337165	0.7427305790977293
0.00017906033247435166	0.7763158446530316	0.7414830837857337
0.00017987137495901535	0.7761028401873173	0.7402560835300475
0.00018060440816871105	0.7759004579323374	0.7390477547246086
0.0001812672302130102	0.7757082292456315	0.7378562292060796
0.00018186675042429764	0.775525700474185	0.7366795547491749
0.00018240911883069447	0.7753524297922981	0.7355156795942932
0.0001828998302083464	0.7751879853366456	0.734362442760012
0.00018334380919685377	0.7750319445248581	0.7332175706382557
0.00018374548100590782	0.7748838940988049	0.7320786778914632
0.0001841088307171616	0.7747434305748707	0.7309432710879722
0.0001844374535651589	0.7746101609621658	0.7298087544802297
0.00018473459805390123	0.7744837036039199	0.7286724371154516
0.00018500320310977644	0.7743636890084105	0.7275315403095395
0.00018524593040645913	0.7742497606527479	0.7263832053751036
0.0001854651926102787	0.7741415756777533	0.7252245008544941
0.0001856631782486318	0.7740388054706727	0.724052429149117
0.0001858418736577513	0.7739411360949668	0.7228639320206671
0.0001860030824852143	0.7738482685883089	0.721655895062029
0.00018614844305810674	0.7737599191042287	0.7204251507158635
0.00018627944389075073	0.7736758189185589	0.719168479914374
0.00018639743761249362	0.7735957143188165	0.7178826124516764
0.00018650365347473388	0.7735193663647262	0.7165642257419483
0.00018659921644196734	0.7734465505559379	0.7152099422999689
0.00018668514388622414	0.7733770505504792	0.7138162037560707
0.00018676235572651648	0.7733106665723953	0.7123794171680841
0.00018683168755919164	0.773247215202988	0.7108959755291007
0.00018689389854210638	0.7731865256480226	0.7093621956706391
0.00018694967823353924	0.7731284388683519	0.7077743048790248
0.00018699965279039395	0.7730728069379197	0.7061284312245043
0.00018704439060442576	0.7730194924086815	0.7044205933971736
0.00018708440743495398	0.7729683676792676	0.7026466899339385
0.00018712017108619776	0.772919314371186	0.7008024878459469
0.00018715210567332477	0.7728722227185102	0.6988836107307782
0.00018718059551131776	0.7728269909740725	0.6968855263724301
0.00018720598866968404	0.7798323112853517	0.7430226349746064
0.00018944564644547256	0.77982622009948	0.7429866021496834
0.00019028319985599617	0.7792496404381309	0.7394079191544318
0.0001909284400107869	0.7790102129752571	0.7378078448837544
0.00019149722756595588	0.7788146167128976	0.736439848190401
0.0001920062456602701	0.7786328091410937	0.7351118130847173
0.00019246293245530428	0.7784614660676356	0.7338031606867481
0.00019287312235503575	0.7782996868376078	0.73250923849674
0.00019324182814546516	0.7781468409379332	0.73122691944993
0.00019357342571378855	0.7780023695013467	0.7299532506199784
0.00019387176220221882	0.7778657587469203	0.7286852894462889
0.00019414023770453564	0.7777365310068821	0.7274200600112307
0.00019438187120682856	0.7776142392891794	0.7261545306199978
0.00019459935032728023	0.7774984629667278	0.7248855944520927
0.00019479507382105934	0.7773888063679978	0.723610075645201
0.00019497119386766506	0.7772848973645224	0.722324735228833
0.00019512964019885378	0.7771863825659396	0.7210262300006267
0.00019527214721187498	0.7770929292522597	0.7197111486473934
0.0001954002760244596	0.7770042237879992	0.7183760061144615
0.00019551543341961782	0.776919970832758	0.7170172452910116
0.0001956188883048316	0.7768398926800489	0.7156312388886547
0.000195711786104376	0.7767637286314537	0.7142142905167469
0.00019579516140097342	0.7766912343743918	0.7127626345971761
0.00019586994910685086	0.7766221813555428	0.7112724350922586
0.0001959369943565889	0.7765563561286405	0.7097397826876342
0.00019599706131033487	0.776493559690773	0.708160690729445
0.0001960508410112003	0.7764336067989636	0.7065310897639302
0.00019609895841650452	0.7763763252714094	0.7048468207327613
0.00019614197870134115	0.7763215552798716	0.7031036269254798
0.00019618041292913312	0.7762691486436671	0.7012971449419175
0.00019621472315506662	0.7762189681225888	0.6994228945166344
0.00019624532703398673	0.776170886723571	0.6974762676110231
0.00019627260197802788	0.7761247870161977	0.6954525165251926
0.00019629688892123246	0.7832385547163643	0.7418982518520321
0.00019760457853456025	0.7832311618001138	0.7418449020073482
0.00019815237640600732	0.7828067823110096	0.7386151405793601
0.00019859207183676206	0.7826106973224186	0.7369956779807636
0.00019898275848021505	0.782443421007473	0.7355385456089154
0.00019933350960505414	0.7822860660143118	0.7340959114097431
0.00019964885948560088	0.7821365899103974	0.7326527776158781
0.00019993251977744198	0.7819944239715156	0.731206193146691
0.00020018774522340268	0.7818591599919879	0.7297543803386559
0.00020041741980613074	0.7817304336236702	0.7282957293683596
0.00020062410982931038	0.7816079093737455	0.7268286657134139
0.00020081010607240604	0.7814912752102663	0.7253515977915718
0.00020097745860741194	0.7813802388015598	0.7238628745427136
0.00020112800601005006	0.7812745245765413	0.7223607473015276
0.00020126340007939786	0.7811738713778144	0.7208433353978727
0.00020138512701383583	0.7810780306285374	0.7193085963287249
0.00020149452562910017	0.7809867648800117	0.7177543001564746
0.0002015928031703304	0.7808998467240362	0.7161780091545485
0.00020168104912356304	0.7808170579900465	0.7145770624989253
0.0002017602473347655	0.780738189172556	0.7129485658092329
0.0002018312866908725	0.7806630390510884	0.7112893853579694
0.00020189497059139847	0.7805914144635024	0.7095961465410765
0.0002019520253561584	0.7805231301740083	0.707865235498284
0.00020200310772373314	0.7804580088240369	0.7060928036021025
0.0002020488115606971	0.7803958809236832	0.7042747737657946
0.00020208967387550655	0.7803365848540869	0.7024068476217684
0.00020212618022017018	0.7802799668648355	0.700484512905103
0.00020215876955361048	0.7802258810519814	0.6985030504206765
0.00020218783862684033	0.7801741893026184	0.6964575399456082
0.00020221374594393848	0.7801247612007042	0.6943428646794584
0.00020223681534289116	0.7873524946711291	0.7409714078149097
0.00020254941256009354	0.787342648318791	0.7408406413439785
0.00020272269161978094	0.7872024137602309	0.7388587716666378
0.00020287022650841824	0.7871181936980521	0.7375469536935819
0.00020300233730912462	0.7870418942754664	0.7362658526940608
0.00020312112130378154	0.7869692336810871	0.7349524560580372
0.0002032279126744221	0.7868996768305206	0.7335982206984318
0.00020332387492472093	0.7868330123327563	0.7321994103991467
0.00020341005797670672	0.7867690684259686	0.7307526596375965
0.0002034874123384409	0.7867076885175249	0.7292545689395438
0.0002035567988658175	0.7866487282707328	0.7277016589435401
0.00020361899729086353	0.7865920545437558	0.7260903565788885
0.00020367471385964383	0.7865375445225345	0.7244169837125695
0.00020372458820843784	0.7864850849191313	0.7226777458839644
0.00020376919956278814	0.7864345712169414	0.7208687207429927
0.00020380907233279958	0.7863859069642111	0.7189858462850075
0.0002038446811799025	0.7863390031177724	0.7170249090610671
0.00020387645560355306	0.7862937774248366	0.7149815319873106
0.000203904784095839	0.7862501538489448	0.7128511620256538
0.00020393001791709165	0.793627257753682	0.7630166438187248
0.00020838122663765786	0.7936228301871114	0.7629953075087998
0.0002100409326870283	0.7927744890506346	0.7587300550344954
0.0002113152495729351	0.7924174070990557	0.7568141531113383
0.000212438317117445	0.7921243681046242	0.7551783202428657
0.00021344403557893276	0.7918503424354981	0.7535902339306101
0.00021434741249490183	0.7915905367913296	0.7520261454803013
0.00021516007590788186	0.7913438411332088	0.7504819464639065
0.00021589202759200526	0.7911095507378949	0.7489555683203526
0.00021655181802819284	0.7908870241039908	0.7474450574145453
0.00021714687226027362	0.7906757086550931	0.7459487900178953
0.00021768374786424965	0.7904751068089267	0.7444652973933334
0.00021816825434002474	0.7902847420959015	0.7429930437351695
0.00021860556146508563	0.7901041577217134	0.74153041252548
0.0002190002853319565	0.7899329120701692	0.7400756680169931
0.00021935655950727054	0.789770576261038	0.7386269294560637
0.00021967809433455054	0.7896167325438879	0.7371821509234445
0.0002199682269660884	0.7894709734192873	0.7357391072477096
0.0002202299639367184	0.7893329012721246	0.7342953851843007
0.00022046601771097984	0.7892021283977707	0.7328483795094413
0.00022067883831304035	0.7890782773016349	0.7313952933705614
0.00022087064084409097	0.78896098116741	0.7299331420627773
0.00022104342958868982	0.7888498844388006	0.7284587597255718
0.0002211990192323732	0.7887446434354023	0.7269688080111218
0.0002213390536198599	0.7886449269570143	0.7254597860135958
0.00022146503484058122	0.7885504168373334	0.7239280407525146
0.0002215783117418763	0.7884607993295134	0.7223696137583625
0.00022168010562460672	0.7883757832550999	0.7207805335014441
0.0002217715238839407	0.7882950927662968	0.7191567203230634
0.00022185357079539404	0.7882184663133075	0.717493975453406
0.00022192715709926103	0.7881456565457858	0.7157879840484958
0.0002219931086369458	0.7880764301940199	0.7140343177888492
0.00022205217414809203	0.7880105678497158	0.7122284355173568
0.00022210503232717878	0.7879478636564448	0.7103656819446699
0.0002221522982125773	0.7878881249157071	0.7084412843237833
0.00022219452898473502	0.7878311716284851	0.7064503473922641
0.00022223222922740154	0.7877768359776999	0.7043878464826941
0.00022226585570808634	0.7877249617719376	0.7022486191930304
0.0002222958217265996	0.7951831926031703	0.7507856956681753
0.00022334447785655526	0.7951728307554724	0.750703582780333
0.0002238231322774098	0.7947875428168928	0.7474823462565312
0.00022421742923741807	0.7945943088775947	0.7457278988530451
0.00022456980979789656	0.7944248636990854	0.7441003347927104
0.00022488718394810043	0.7942641396202829	0.7424703176219268
0.0002251732620441849	0.7941105401710283	0.7408250594268045
0.0002254311113404629	0.7939636305660348	0.7391623185043913
0.00022566351166620547	0.7938231255189991	0.7374812710663543
0.0002258729490081034	0.7936887438656478	0.7357810292649231
0.00022606165724990533	0.7935602283161508	0.7340608590174983
0.0002262316462271556	0.793437338659513	0.7323200991705798
0.00022638472693012023	0.7933198497744537	0.7305581284078839
0.00022652253308357394	0.7932075491988412	0.7287743196421884
0.0002266465436804962	0.7931002350884498	0.7269679931557823
0.0002267580974379914	0.7929977112166007	0.7251383089930472
0.00022685839832201462	0.7928997862110062	0.7232842151118755
0.00022694853508173978	0.7928062801812726	0.7214045463248605
0.00022702949309697673	0.792717018648283	0.7194978990498111
0.0002271021644963915	0.792631831281529	0.7175625824689082
0.00022716735714269326	0.7925505512366678	0.715596581299467
0.0002272258026710385	0.7924730147521266	0.7135975259231171
0.00022727816369498725	0.7923990609463816	0.7115626699242894
0.00022732504029160578	0.7923285317964804	0.7094888755377878
0.00022736697583763678	0.7922612722540464	0.707372606499618
0.0002274044622786723	0.7921971304831715	0.7052099282117333
0.00022743794489021862	0.7921359581759029	0.7029965140265693
0.00022746782658923393	0.7920776109181646	0.7007276566504558
0.00022749447183679133	0.7920219485690775	0.6983982830870588
0.00022751821018224386	0.799606922233878	0.7467356519754013
0.00022768368230806742	0.7995932640329326	0.7464638421348633
0.0002277882015356197	0.7994930340395219	0.7443433508016233
0.0002278786938392759	0.7994243723959396	0.74274826475847
0.0002279597318809323	0.7993607430510243	0.7411511118391895
0.00022803247658585688	0.7992997559585188	0.7394990228614753
0.00022809774719623676	0.7992410952480881	0.7377838544323939
0.00022815626920807052	0.7991846279381374	0.7360014178252698
0.00022820869991126516	0.7991302442943452	0.7341477643484652
0.00022825563582475238	0.7990778437625631	0.7322188367193527
0.0002282976182102207	0.7990273332221514	0.7302104267129894
0.0002283351379903488	0.7989786263166758	0.7281181606464456
0.00022836864022905383	0.7989316429139941	0.7259374875255366
0.00022839852821882132	0.8066518051031167	0.7775499791327634
