#t	L(t)	L_*(t)
0.0	1.05	1.0476190476190477
0.0012973373302605177	1.049999999589263	1.0476190472048694
0.14456989991558206	1.049998935186612	1.0476179739032834
0.19721954462324665	1.0498953542124185	1.0475137043167768
0.2608795439580389	1.0498628935092547	1.047481098394441
0.3244357589818334	1.0498266363346596	1.0474447157447098
0.39192434934280335	1.0497931148223851	1.047411109668247
0.4623799798494534	1.0497598782051614	1.0473778153533506
0.5365251924378484	1.0497272544036513	1.0473451562731502
0.6145757207563561	1.04969473182958	1.0473126154992258
0.6969855131842677	1.0496620642671937	1.0472799427271449
0.7842087938182773	1.0496289197703255	1.047246802625999
0.8767987066207843	1.0495949872151686	1.0472128813868504
0.9753952849036969	1.0495599348831626	1.0471778452119749
1.0807583706854065	1.0495234157511637	1.0471413455262115
1.193793631425651	1.0494850549169037	1.0471030063300144
1.3155936381647455	1.0494444399738643	1.047062414505933
1.4474915993263444	1.0494011059463109	1.0470191046925998
1.5911373904450974	1.0493545158102826	1.046972539751945
1.7486068071647984	1.0493040331822965	1.0469220834134154
1.9225658042362936	1.04924888337187	1.046866961293356
2.1165315711232466	1.0491880951966321	1.0468062026921
2.3324492190206523	1.0491204089554196	1.0467385485709542
2.577058628440904	1.0490451200984996	1.0466632947991865
2.858826967118953	1.048959857695976	1.0465780716367097
3.193240857569717	1.0488616538555346	1.0464799126127065
3.6166645426301622	1.0487450961048523	1.0463634077369066
4.1157027758438804	1.0485974916937766	1.046215869950871
4.530183148716985	1.0484234878097654	1.0460419442212379
4.956483604258721	1.04827893228348	1.0458974533248737
5.375003767285328	1.0481302207346452	1.0457488079902773
5.795712791900237	1.0479841899952267	1.0456028420011243
6.215241030369988	1.0478373622409838	1.045456079080626
6.635049825835254	1.0476909133341028	1.0453096945703197
7.054596993576188	1.0475443332361776	1.0451631786565483
7.474104466401303	1.0473978112337887	1.0450167205425402
7.893486986206481	1.0472512698361687	1.0448702427711716
8.312778642338674	1.0471047388258081	1.044723775111718
8.73196622404579	1.0469582062985066	1.0445773056648935
9.1510548899521	1.046811676875118	1.0444308390493084
9.570042725898501	1.0466651487574001	1.0442843734672465
9.988930444448167	1.0465186226192076	1.0441379095920253
10.407717813669542	1.046372098216093	1.0439914471790543
10.826404906592375	1.0462255756338772	1.0438449863138695
11.244991746493023	1.046079054851724	1.0436985269753956
11.663478327539098	1.0459325358661955	1.0435520691599476
12.081864639726424	1.045786018684042	1.043405612874026
12.500150709409914	1.0456395033134815	1.0432591581255959
12.918336558837865	1.0454929897500016	1.0431127049098994
13.336422154475496	1.045346477990524	1.0429662532236106
13.7544075995412	1.0451999680515178	1.042819803082944
14.172292807254879	1.0450534599015275	1.0426733544562086
14.590077847866153	1.0449069535756883	1.0425269073782764
15.00776266867148	1.044760449054094	1.0423804618290016
15.425347332274981	1.0446139463599515	1.0422340178313327
15.842831801308982	1.0444674454760299	1.0420875753677974
16.26021614206224	1.0443209464201673	1.0419411344559784
16.677500292695253	1.0441744491738312	1.0417946950771015
17.094684320605072	1.0440279537634587	1.041648257257345
17.511768218485205	1.043881460170124	1.041501820977542
17.928752007098353	1.043734968401125	1.0413553862447384
18.345635691288322	1.043588478453903	1.041208953056128
18.76241926485482	1.0434419903314913	1.0410625214144946
19.17910276606952	1.0432955040408078	1.0409160913265034
19.595686164070088	1.0431490195731399	1.040769662783197
20.01216947074363	1.0430025369440794	1.0406232357999126
20.428552755207154	1.0428560561541942	1.0404768103769682
20.844835969321142	1.0427095771839172	1.0403303864945557
21.261019163416535	1.0425631000549274	1.040183964174096
21.677102279739287	1.0424166247542614	1.0400375434023825
22.09308541703867	1.042270151306998	1.0398911242042348
22.50896852827677	1.042123679683125	1.0397447065494025
22.92475165522375	1.0419772099039535	1.0395982904589398
23.340434766673837	1.041830741959525	1.0394518759226425
23.756017899549644	1.0416842758655878	1.0393054629560041
24.171501050417838	1.0415378116138914	1.039159051550527
24.58688426454799	1.0413913492104037	1.039012641711928
25.00216748962006	1.0412448886439243	1.038866233428761
25.417350778876468	1.0410984299376627	1.0387198267239777
25.832434126771464	1.0409519730776073	1.038573421583322
26.247417562586428	1.0408055180704787	1.0384270180132622
26.662301059000587	1.0406590649107101	1.0382806160079838
27.077084675304846	1.040512613612712	1.0381342155816424
27.491768348728385	1.0403661641603237	1.0379878167178334
27.906352158022102	1.0402197165804805	1.0378414194432326
28.32083610106183	1.040073270850146	1.0376950237345621
28.735220182705877	1.03992682697484	1.0375486295970895
29.149504372811315	1.039780384957619	1.0374022370336198
29.563688746185814	1.0396339448139154	1.0372558460593306
29.97777325262151	1.0394875065220643	1.037109456652314
30.391757930977597	1.0393410701045966	1.0369630688348435
30.805642790843702	1.0391946355525548	1.036816682597714
31.219427832506632	1.0390482028673294	1.0366702979420652
31.633113066807702	1.038901772053604	1.036523914872329
32.04669850646967	1.03875534311233	1.036377533389206
32.460184187682884	1.0386089160437926	1.036231153492731
32.87357007445308	1.038462490839966	1.03608477517463
33.2868561870703	1.0383160675183871	1.035938398452184
33.70004255942149	1.0381696460766654	1.0357920233227522
34.11312917483003	1.038023226507589	1.035645649778875
34.52611605248013	1.0378768088218635	1.0354992778310033
34.93900324806383	1.0377303930174877	1.035352907476886
35.35179068401693	1.0375839790795116	1.0352065387013265
35.76447847514171	1.0374375670402407	1.0350601715363696
36.177066480059736	1.0372911568637555	1.0349138059458562
36.58955491195505	1.0371447486050198	1.0347674419844821
37.00194358444484	1.0369983421931874	1.0346210795811712
37.41423259116677	1.0368519376992147	1.0344747188066077
37.826421977132846	1.0367055350946766	1.0343283596321236
38.238511691579255	1.0365591343683946	1.0341820020462926
38.65050177068031	1.036412735543209	1.034035646071697
39.06239222709358	1.0362663386110835	1.0338892917000513
39.474183044799055	1.0361199435723338	1.0337429389314199
39.88587428145812	1.0359735504374719	1.0335965877760598
40.29746589621762	1.035827159190815	1.0334502382180415
40.70895791055187	1.0356807698517083	1.0333038902764529
41.12035038286091	1.0355343824173389	1.0331575439482303
41.53164327331342	1.0353879968717499	1.0330111992171696
41.94283661246318	1.035241613233935	1.0328648561020068
42.353930402773365	1.0350952314978454	1.032718514596444
42.764924646886655	1.03494885166743	1.0325721747041756
43.17581936763622	1.0348024737465757	1.0324258364288368
43.58661457064152	1.0346560977319803	1.0322794997668736
43.9973102312308	1.0345097236264724	1.0321331647208616
44.40790641771222	1.0343633514436787	1.0319868313041718
44.81840309738067	1.0342169811640896	1.0318404994970474
45.22880029168359	1.0340706128041977	1.0316941693157247
45.63909802752574	1.0339242463611957	1.0315478407571441
46.04929628203024	1.0337778818303258	1.0314015138162975
46.45939511685029	1.0336315192245902	1.0312551885059302
46.8693944780312	1.033485158526831	1.0311088648086364
47.27929441452777	1.033338799761147	1.0309625427482567
47.68909491708874	1.033192442914911	1.0308162223119137
48.09879601642952	1.0330460879962735	1.0306699035075033
48.50839773784521	1.0328997349991127	1.0305235863286524
48.9179000084288	1.0327533839192384	1.0303772707709187
49.32730292781417	1.0326070347875558	1.0302309568649468
49.73660648133616	1.0324606875733127	1.0300846445797394
50.14581064594983	1.0323143422866012	1.0299383339251325
50.55491544743549	1.032167998940519	1.0297920249139678
50.96392093085247	1.0320216575307075	1.0296457175416345
51.37282706373372	1.031875318045906	1.0294994117966203
51.78163387620195	1.0317289805025893	1.029353107695144
52.190341363916154	1.0315826448948413	1.0292068052310368
52.59894955433921	1.0314363112290803	1.0290605044104617
53.00745842952993	1.0312899795003385	1.0289142052281992
53.41586802525825	1.0311436497199093	1.0287679076952856
53.82417835503525	1.03099732187985	1.0286216118035265
54.23238938861182	1.0308509959801873	1.0284753175526948
54.64050117948571	1.0307046720366353	1.0283290249582473
55.04851370147618	1.030558350034893	1.028182734005632
55.456427031845294	1.030412029989222	1.0280364447088535
55.86424112906503	1.0302657118767888	1.027890157044829
56.27195602695154	1.0301193957173618	1.0277438710330682
56.67957165836892	1.0299730815036865	1.027597586666064
57.08708813259021	1.0298267692647407	1.027451303972534
57.49450539226786	1.0296804589661863	1.0273050229178926
57.901823482654464	1.029534150633495	1.0271587435273517
58.309042383644865	1.029387844255303	1.0270124657892954
58.71616213523005	1.0292415398437211	1.026866189715577
59.1231827671364	1.029095237389271	1.0267199152964661
59.530104205374144	1.0289489368861562	1.0265736425259118
59.93692656549936	1.0288026383658657	1.0264273714351426
60.34364977221871	1.0286563417917487	1.026281101987259
60.7502738829693	1.0285100471957733	1.0261348342139691
61.15679890771781	1.028363754562179	1.0259885680992593
61.56322481651312	1.0282174638922745	1.025842303644183
61.969551653980325	1.0280711752017389	1.0256960408641618
62.375779421132364	1.027924888479413	1.0255497797477822
62.781908114551364	1.0277786037298335	1.0254035202993252
63.18793773393389	1.0276323209591371	1.025257262524671
63.59386833343776	1.0274860401723431	1.0251110064285822
63.999699900278614	1.0273397613548476	1.0249647519962017
64.4054324342523	1.027193484516164	1.0248184992367857
64.81106595739078	1.027047209661278	1.0246722481550627
65.21660052431743	1.0269009367871595	1.0245259987477482
65.62203604153895	1.0267546658790192	1.024379750999798
66.0273725948107	1.0266083969754953	1.0242335049495892
66.43261017973117	1.0264621300505716	1.0240872605708526
66.83774883852337	1.0263158651107516	1.0239410178698352
67.24278848024179	1.0261696021457105	1.0237947768359568
67.64772918123018	1.0260233411932058	1.023648537506713
68.05257098148864	1.025877082230601	1.0235022998592143
68.45731381484232	1.0257308252483681	1.0233560638836772
68.86195776827826	1.0255845702753417	1.0232098296086758
69.26650280989499	1.0254383172850177	1.023063597007453
69.67094897684895	1.0252920662938525	1.022917366096206
70.07529622717897	1.025145817293343	1.0227711368661756
70.47954461252279	1.0249995703035957	1.0226249093372088
70.8836941194399	1.0248533253108714	1.0224786834953112
71.28774482414481	1.0247070823249684	1.0223324593500227
71.69169664496683	1.0245608413232405	1.0221862368784425
72.0955496419417	1.024414602340184	1.022040016114805
72.49930377584049	1.024268365359009	1.0218937970420652
72.90295912792413	1.0241221303988652	1.021747579679113
73.30651567185241	1.0239758974352646	1.0216013640012056
73.70997341919842	1.023829666482691	1.0214551500225673
74.11333239056982	1.0236834375418975	1.0213089377436932
74.51659260082904	1.0235372106103617	1.021162727161804
74.91975400963874	1.023390985687643	1.0210165182762
75.32281667485054	1.023244762793321	1.0208703111062016
75.72578061503606	1.0230985419113696	1.0207241056355256
76.12864577722738	1.022952323040001	1.0205779018621266
76.53141224548038	1.022806106203394	1.020431699809922
76.93407994588028	1.0226598913759994	1.0202854994531076
77.3366489941117	1.0225136785896118	1.0201393008232156
77.7391193328685	1.022367467807185	1.0199931038829446
78.14149098411224	1.022221259054489	1.0198469086578044
78.54376395963112	1.022075052328511	1.0197007151445228
78.94593823826857	1.021928847629933	1.0195545233435233
79.34801391455848	1.0217826449714145	1.0194083332672048
79.749990879621	1.0216364443235548	1.0192621448859107
80.1518692669936	1.0214902457309152	1.0191159582439389
80.55364898730414	1.0213440491499002	1.0189697732974385
80.95533009105314	1.0211978546179927	1.0188235900836298
81.3569125766319	1.0210516621217967	1.0186774085888584
81.75839648420111	1.0209054716668748	1.0185312288184272
82.15978183361055	1.0207592832435841	1.0183850507624341
82.56106854140285	1.0206130968496696	1.0182388744183644
82.96225672603312	1.020466912520512	1.0180926998213369
83.36334632933594	1.0203207302179447	1.017946526932927
83.76433741612301	1.0201745499681423	1.0178003557790485
84.16522992931213	1.0200283717524685	1.0176541863408053
84.5660239565304	1.0198821955967199	1.0175080186437326
84.9667194331666	1.019736021473933	1.017361852660608
85.36731642619189	1.0195898494126614	1.0172156884197232
85.76781488679363	1.019443679393467	1.0170695259013802
86.16821489634317	1.019297511439155	1.016923365128123
86.56851641849187	1.0191513455250223	1.016777206074989
86.96871947626741	1.019005181669331	1.016631048759978
87.36882404645601	1.0188590198686716	1.0164848931794195
87.76883017182617	1.0187128601365247	1.0163387393465337
88.1687378773427	1.0185667024622713	1.0161925872504403
88.56854715884003	1.0184205468417897	1.016046436886756
88.96825800441404	1.0182743932816036	1.0159002882617438
89.3678704599058	1.0181282417910718	1.0157541413845004
89.76738447653095	1.0179820923584404	1.0156079962430107
90.16680011303245	1.0178359450065628	1.0154618528598658
90.56611737097566	1.0176897997189647	1.0153157112183302
90.9653362919745	1.0175436565000844	1.01516957132258
91.36445682459626	1.0173975153397012	1.0150234331621333
91.76347902207321	1.0172513762616582	1.0148772967605701
92.1624028508436	1.0171052392514832	1.0147311621031567
92.5612283853613	1.016959104326488	1.0145850292069425
92.95995559315449	1.016812971464418	1.0144388980494103
93.35858449217177	1.016666840682189	1.0142927686472136
93.75711508864124	1.0165207119782471	1.0141466409985358
94.15554742423507	1.0163745853553343	1.014000515105856
94.55388144147395	1.016228460803194	1.0138543909586555
94.95211722621252	1.0160823383479358	1.0137082685827807
95.35025474187815	1.0159362179630953	1.0135621479515038
95.74829399760628	1.015790099667119	1.0134160290830085
96.14623504959143	1.0156439834616893	1.013269911978714
96.54407782842944	1.015497869331209	1.0131237966227598
96.94182240648684	1.0153517573061976	1.0129776830454023
97.3394687844113	1.015205647365119	1.0128315712248408
97.73701696917885	1.0150595395127702	1.01268546116561
98.13446690835109	1.0149134337516266	1.012539352869921
98.53181873690282	1.0147673301060083	1.0123932463618301
98.92907231850188	1.0146212285313405	1.012247141596498
99.32622779156415	1.0144751290827967	1.0121010386288356
99.72328508646164	1.0143290317145217	1.011954937412722
100.1202442553566	1.0141829364571742	1.0118088379785524
100.51710529035526	1.014036843296613	1.0116627403119212
100.91386822853116	1.0138907522407936	1.0115166444205193
101.31053303073548	1.0137446632811191	1.0113705502954848
101.70709975364782	1.0135985764370596	1.0112244579560241
102.10356836670366	1.0134524916927976	1.011078367386054
102.49993889691528	1.0133064090646495	1.0109322786016266
102.89621137729732	1.0131603285477255	1.0107861915975866
103.29238578550473	1.0130142501349164	1.0106401063665598
103.68846212284203	1.012868173839521	1.01049402292158
104.08444046416652	1.0127220996661268	1.0103479412669694
104.48032074582257	1.012576027592189	1.0102018613799166
104.87610304754928	1.0124299576462548	1.0100557832887047
105.27178727911995	1.01228388980397	1.0099097069687126
105.66737355312036	1.0121378241037071	1.0097636324580486
106.06286182736925	1.0119917605089797	1.0096175597199584
106.45825212667472	1.0118456990404316	1.009471488774821
106.85354445511936	1.0116996396939768	1.009325419618284
107.24873881520445	1.0115535824731834	1.009179352253649
107.64383522917197	1.0114075273822065	1.0090332866848055
108.03883372133794	1.0112614744179071	1.008887222908347
108.4337342638991	1.0111154235763746	1.0087411609200965
108.82853689699046	1.0109693748729731	1.008595100735152
109.22324161185911	1.0108233282979446	1.008449042343488
109.61784841703387	1.0106772838596134	1.0083029857531622
110.01235736122494	1.0105312415599137	1.0081569309658425
110.40676839862513	1.0103852013859054	1.0080108779683195
110.80108160166226	1.010239163359636	1.0078648267823755
111.19529690267987	1.0100931274593794	1.0077187773860152
111.58941437396959	1.0099470937152877	1.0075727298091255
111.9834339958618	1.0098010621056794	1.0074266840297554
112.37735583061176	1.0096550326429392	1.0072806400600223
112.77117981963511	1.0095090053090887	1.0071345978816784
113.16490600096652	1.0093629801309438	1.006988557521274
113.55853438797179	1.0092169570995067	1.0068425189695425
113.95206497014371	1.0090709362149235	1.0066964822263613
114.34549776606013	1.0089249174861985	1.0065504473004667
114.73883282733223	1.008778900911548	1.006404414189807
115.13207011790587	1.008632886476922	1.0062583828800615
115.52520966463925	1.0084868742008122	1.006112353389455
115.91825144008168	1.0083408640783578	1.005966325712857
116.31119550755088	1.0081948561248704	1.0058202998653123
116.70404185732914	1.0080488503219451	1.0056742758281443
117.09679051412223	1.0079028466783062	1.0055282536098087
117.48944146442577	1.007756845189887	1.005382233205969
117.88199472209702	1.0076108458668265	1.0052362146264957
118.27445030387003	1.0074648487090945	1.0050901978710887
118.66680823825891	1.00731885371559	1.0049441829383776
119.05906848739339	1.007172860880827	1.004798169822605
119.45123113090652	1.0070268702240233	1.0046521585427213
119.84329608527939	1.006880881720666	1.0045061490739402
120.23526344768356	1.0067348954069768	1.0043601414522176
120.62713315552223	1.0065889112519062	1.0042141356462293
121.01890530107491	1.0064429292838994	1.0040681316841542
121.41057981701675	1.0062969494737128	1.003922129536473
121.80215677349311	1.0061509718515658	1.0037761292331395
122.19363611143514	1.0060049963964528	1.0036301307528728
122.5850179153883	1.0058590231355333	1.0034841341225667
122.9763021354488	1.0057130520424242	1.0033381393155612
123.3674888365918	1.005567083140878	1.0031921463553424
123.75857799175387	1.0054211164117988	1.003046155222539
124.14956960835582	1.0052751518704268	1.0029001659321222
124.54046370669083	1.0051291895191419	1.0027541784862004
124.93126027229182	1.0049832293555179	1.002608192882075
125.32195935634185	1.0048372713901097	1.0024622091300308
125.71256098855743	1.0046913156089534	1.0023162272158295
126.10306511000387	1.0045453620060942	1.0021702471332419
126.49347178143833	1.004399410608708	1.0020242689091767
126.883781022669	1.0042534613992444	1.001878292525808
127.27399278956656	1.0041075143754508	1.0017323179806097
127.66410713336167	1.0039615695589872	1.001586345294973
128.05412404107418	1.0038156269358556	1.0014403744546239
128.44404357489742	1.0036696865160735	1.0012944054693087
128.83386565074676	1.0035237482815282	1.0011484383206382
129.22359035723827	1.003377812268858	1.0010024730449842
129.61321763077345	1.003231878450058	1.0008565096140627
130.00274758091555	1.0030859468541145	1.0007105480565919
130.39218015020666	1.002940017445161	1.000564588336424
130.78151535616257	1.0027940902498897	1.0004186304799834
131.17075321573586	1.002648165266914	1.0002726744856083
131.55989377338173	1.0025022424950558	1.0001267203518467
131.9489369425154	1.0023563219228215	0.9999807680669275
132.3378828747236	1.0022104035878614	0.9998348176682346
132.72673143045753	1.0020644874384974	0.9996888691038042
133.11548277572635	1.0019185735322627	0.9995429224309073
133.50413675510225	1.0017726618120448	0.9993969775921436
133.89269351183916	1.001626752341365	0.9992510346507733
134.28115297033727	1.0014808450716326	0.9991050935579199
134.66951523506148	1.0013349400364215	0.9989591543468891
135.05778018527187	1.001189037201681	0.9988132169833468
135.44594796041736	1.001043136617963	0.9986672815175814
135.83401844860234	1.0008972382380612	0.9985213479020991
136.2219917714431	1.000751342109227	0.9983754161838867
136.60986785189706	1.000605448190936	0.9982294863221347
136.9976467737122	1.0004595565173564	0.9980835583507421
137.3853285055456	1.000313667062187	0.9979376322431253
