#t	L(t)
0.0	1.05
0.0009771530896713326	1.0499999995957165
0.1137334345035997	1.0499992112493524
0.15521162665402527	1.0499289139617303
0.20392578484791904	1.0499117061132044
0.25253990543598503	1.0498961858937572
0.30355502057289996	1.0498850089771055
0.35636650943836046	1.0498771913032985
0.4113589538198085	1.0498726466984825
0.46862540624997573	1.0498711182755813
0.5283769368619052	1.0498724085944362
0.5908159195208789	1.0498763356800982
0.6561816247246929	1.049882739523687
0.7247412526307471	1.0498914828938726
0.79680000218895	1.0499024513994892
0.8727065285917567	1.0499155549287915
0.9528620519426698	1.0499307288431963
1.0377310098839356	1.0499479358704504
1.1278548870009013	1.0499671684707423
1.2238699091960952	1.0499884520163505
1.3265302621514334	1.0500118489911403
1.4367390459771467	1.050037464638911
1.5555905695944423	1.0500654546473351
1.6844299373728997	1.0500960358188072
1.8249404814418742	1.050129501302746
1.9792795064838908	1.0501662431830143
2.1503065911109074	1.0502067878408057
2.342014579604625	1.050251855813856
2.5604944250560493	1.0503024753304226
2.8053746139150713	1.0503602372525513
3.083802061014876	1.0504250294559365
3.402704320029331	1.0504987334887788
3.754486451150764	1.0505831797789056
4.06899660713029	1.0506763572698734
4.388870905302802	1.0507596808039885
4.7047657650922785	1.0508444421391974
5.0214201363419235	1.0509281651118063
5.337605026096885	1.0510121053233612
5.65392553413745	1.0510959369547905
5.9702207772753475	1.0511798203908689
6.28656892304953	1.0512637129633924
6.602948990768663	1.0513476353984297
6.919371148020642	1.051431582129041
7.235832613460118	1.051515555851655
7.552334756721431	1.0515995558274773
7.868877228788682	1.0516835824193453
8.185460221563044	1.0517676355339844
8.502083694164764	1.051851715221728
8.818747694733899	1.0519358214711065
9.1354522359851	1.0520199542942947
9.452197308674416	1.052104113694059
9.768982968531361	1.052188299667328
10.085809199509166	1.0522725122283
10.402676035715967	1.052356751372095
10.719583491295838	1.0524410171071663
11.036531558387964	1.0525253094366591
11.353520315471181	1.0526096283578652
11.670549709948062	1.0526939738910461
11.987619804201614	1.05277834602159
12.30473061141952	1.0528627447654793
12.621882109857681	1.0529471701256075
12.939074359048604	1.0530316220955651
13.2563073565576	1.0531161006905834
13.573581109488186	1.0532006059093941
13.890895664915552	1.0532851377532673
14.20825102113479	1.0533696962341235
14.525647188508593	1.053454281350887
14.843084185602816	1.0535388931056955
15.160562057824691	1.0536235315028741
15.478080762140463	1.0537081965539068
15.795640373368972	1.0537928882466907
16.113240858546266	1.0538776066005557
16.4308822880546	1.053962351606081
16.748564633918214	1.0540471232814197
17.06628794573044	1.0541319216184784
17.384052192391742	1.0542167466298662
17.7018574622617	1.0543015983066504
18.01970370949764	1.0543864766717959
18.337590983860196	1.0544713817124305
18.655519280986333	1.0545563134412144
18.97348862230282	1.0546412718563505
19.291499046889925	1.054726256962931
19.609550551707944	1.0548112687707687
19.927643139466852	1.0548963072784194
20.245776840359085	1.0549813724859711
20.56395166446584	1.0550664644008627
20.882167640581077	1.0551515830251534
21.200424797968978	1.05523672836591
21.518723107160078	1.0553219004303274
21.837062636963633	1.0554070992098803
22.155443372583225	1.0554923247223482
22.473865343142087	1.0555775769631324
22.792328555461616	1.0556628559393908
23.110833047071836	1.0557481616523101
23.429378820821704	1.0558334941113037
23.747965865700145	1.0559188533164943
24.06659424852585	1.0560042392642877
24.385263940448734	1.056089651971949
24.703974984270186	1.0561750914311019
25.02272739171326	1.0562605576525765
25.341521169958128	1.0563460506388724
25.66035636842405	1.0564315703912692
25.97923296165054	1.0565171169223797
26.29815098727514	1.0566026902247256
26.617110455658157	1.05668829030776
26.93611137287723	1.0567739171736146
27.255153769868958	1.0568595708232715
27.57423766511702	1.0569452512643873
27.893363056566407	1.0570309585012765
28.21252998651938	1.057116692532735
28.531738445836215	1.0572024533694764
28.850988497784424	1.0572882410083917
29.17028007265635	1.0573740554658335
29.489613282667857	1.057459896722409
29.80898810235773	1.0575457648076325
30.128404511831544	1.0576316597140059
30.447862591902663	1.0577175814355204
30.767362312383696	1.057803529993258
31.086903722354474	1.0578895053784412
31.40648683435497	1.0579755076036186
31.72611161227783	1.0580615366715094
32.045778152923745	1.0581475925717327
32.36548641853707	1.0582336753296915
32.68523644519333	1.0583197849345596
33.005028222386414	1.0584059213953922
33.324861818726305	1.0584920847086963
33.64473719869434	1.0585782748922956
33.96465440626251	1.0586644919359565
34.28461345754656	1.0587507358508657
34.60461433946872	1.0588370066407045
34.92465709936647	1.0589233043012798
35.244741757703736	1.059009628844691
35.56486831368039	1.0590959802757929
35.88503678819809	1.0591823585937021
36.20524719114663	1.059268763803391
36.52549957891436	1.0593551959068588
36.84579389786069	1.0594416549186585
37.16613022034173	1.0595281408236388
37.48650854070901	1.0596146536406652
37.806928893043214	1.0597011933675418
38.12739125981065	1.0597877600128032
38.4478956981866	1.0598743535710393
38.76844218278996	1.0599609740570268
39.08903074812374	1.0600476214632315
39.409661414986275	1.060134295798304
39.7303342101804	1.0602209970671914
40.05104911829624	1.0603077252764668
40.37180618719116	1.0603944804212846
40.69260542114787	1.060481262513913
41.01344684417608	1.0605680715548331
41.33433045250661	1.0606549075498635
41.65525628945875	1.0607417704973043
41.97622435428803	1.060828660408202
42.29723467162459	1.0609155772816745
42.61828722808704	1.0610025211237104
42.9393820645041	1.0610894919300016
43.26051919298111	1.0611764897109235
43.581698665188235	1.061263514469072
43.90292042888553	1.061350566217767
44.22418455955664	1.061437644942163
44.54549101939402	1.0615247506620367
44.86683989533137	1.0616118833664492
45.18823113308844	1.0616990430782889
45.509664780001465	1.0617862297821454
45.831140885317474	1.0618734434901698
46.15265940234981	1.0619606842150362
46.47422040378246	1.0620479519433852
46.79582386611699	1.062135246694254
47.11746980656008	1.0622225684605726
47.439158268551566	1.0623099172463184
47.760889243815846	1.062397293062596
48.082662768096434	1.0624846959064635
48.40447883910574	1.0625721257869372
48.72633748937644	1.0626595827027
49.04823872391015	1.0627470666618968
49.370182568967415	1.0628345776651913
49.69216904625936	1.0629221157190247
50.014198138170705	1.063009680828604
50.336269900297	1.0630972729884391
50.65838431425979	1.063184892212952
50.98054141357145	1.0632725384964425
51.30274120312269	1.0633602118473273
51.62498374418018	1.0634479122662346
51.94726899109561	1.0635356397691398
52.269596979405954	1.0636233943429132
52.59196775468785	1.063711175996524
52.91438127591077	1.063798984741681
53.23683762554831	1.0638868205665017
53.55933680779002	1.0639746834927477
53.881878813426866	1.0640625735208573
54.20446363654477	1.064150490647614
54.5270913474721	1.0642384348706948
54.84976193800658	1.0643264062085633
55.172475438457965	1.064414404658275
55.495231823148046	1.0645024302273867
55.818031151713434	1.0645904829081816
56.1408734000764	1.064678562716217
56.46375864194282	1.0647666696442097
56.786686833583715	1.0648548037115617
57.10965802219677	1.0649429649056237
57.43267222161799	1.0650311532385635
57.755729459808606	1.0651193687134444
58.07882973115126	1.0652076113371873
58.40197304869115	1.0652958811075413
58.725159451426464	1.065384178027351
59.048388941494494	1.0654725021065534
59.37166154498373	1.0655608533450143
59.69497724278762	1.065649231749145
60.01833609414774	1.0657376373129996
60.34173808938425	1.0658260700520548
60.66518326620651	1.0659145299629407
60.988671638168995	1.066003017055249
61.312203200074414	1.066091531331966
61.6357779907918	1.0661800727909445
61.95939600967643	1.0662686414420963
62.2830572694267	1.0663572372845191
62.60676183027757	1.0664458603209614
62.930509644260106	1.0665345105671904
63.25430075710421	1.0666231880093413
63.578135191968514	1.0667118926592085
63.9020129660955	1.0668006245224073
64.22593407685018	1.0668893836029327
64.54989854258521	1.0669781698993308
64.87390640636862	1.067066983415899
65.19795763895387	1.0671558241637116
65.52205231808404	1.067244692134015
65.84619037093734	1.0673335873473966
66.17037192117051	1.0674225097831447
66.49459692061184	1.0675114594744475
66.81886537608995	1.0676004364073535
67.14317732422792	1.0676894405829973
67.46753280803038	1.0677784720106913
67.79193180783116	1.0678675307015046
68.11637434519245	1.0679566166492989
68.4408604269969	1.068045729859254
68.76539008816422	1.0681348703325189
69.08996333897456	1.0682240380779433
69.41458019410497	1.0683132330976102
69.73924066021861	1.068402455394809
70.06394477414459	1.0684917049706264
70.38869252460267	1.0685809818344416
70.71348395169119	1.068670285982407
71.0383190753491	1.0687596174248024
71.36319787510132	1.068848976166366
71.68812041359801	1.0689383622007158
72.0130866622402	1.06902777554434
72.33809667543889	1.0691172161886193
72.66315046049883	1.0692066841477783
72.98824801095238	1.0692961794230778
73.31338935627862	1.0693857020119846
73.63857451037494	1.0694752519218627
73.96380351167664	1.069564829155785
74.28907634286968	1.0696544337235863
74.61439303046814	1.0697440656197412
74.93975359215275	1.069833724850799
75.2651580653484	1.0699234114208747
75.5906064302876	1.0700131253395286
75.91609874684164	1.0701028666005528
76.24163497650795	1.0701926352196978
76.56721517725883	1.0702824311855852
76.89283933400299	1.0703722545134444
77.21850749692919	1.0704621051983505
77.54421964192798	1.07055198325339
77.8699758287657	1.0706418886711457
78.19577603377047	1.070731821467351
78.52162030279126	1.070821781634706
78.84750862414131	1.0709117691851051
79.17344104378907	1.0710017841145543
79.49941755449711	1.0710918264349834
79.82543819713274	1.0711818961436257
80.15150295509537	1.0712719932510046
80.47761186080821	1.0713621177517636
80.80376494235828	1.0714522696540927
81.12996218796556	1.0715424489649865
81.45620363836814	1.071632655680416
81.78248931766268	1.0717228898108737
82.10881921245523	1.071813151362253
82.43519333517926	1.071903440330075
82.76161171675632	1.0719937567170024
83.0880743798874	1.0720841005308153
83.4145813193442	1.0721744717770207
83.74113258344767	1.0722648704533935
84.0677281805438	1.0723552965725336
84.39436808802787	1.0724457501359757
84.72105236545278	1.0725362311366773
85.0477810147265	1.072626739590354
85.37455403738471	1.0727172754967538
85.70137148855885	1.0728078388555193
86.02823333338557	1.0728984296811477
86.35513961046055	1.0729890479631914
86.6820903581233	1.073079693711564
87.00908555136967	1.0731703669361123
87.33612523970237	1.0732610676291154
87.66320941646718	1.073351795803517
87.9903381229404	1.073442551456683
88.31751134716407	1.0735333345992784
88.64472910483337	1.0736241452271953
88.97199142872654	1.0737149833439976
89.29929832139577	1.0738058489579938
89.62664980122399	1.0738967420691001
89.9540458973248	1.0739876626816276
90.28148661293687	1.0740786108028688
90.60897197522442	1.0741695864329293
90.9365019911889	1.074260589578561
91.26407667270745	1.0743516202409138
91.5916960473354	1.0744426784224912
91.91936012777323	1.074533764130155
92.24706892801176	1.0746248773666376
92.574822465128	1.074716018135031
92.90262072392254	1.074807186439284
93.23046376846362	1.0748983822743658
93.55835158243954	1.074989605657298
93.88628418873832	1.0750808565827397
94.21426164374131	1.0751721350562549
94.54228389951643	1.0752634410927353
94.87035102839322	1.075354774678032
95.19846298097178	1.075446135831478
95.52661983859075	1.0755375245385086
95.8548215544197	1.0756289408209703
96.18306819507032	1.0757203846650083
96.51135977015231	1.0758118560883712
96.83969628537578	1.0759033550929287
97.16807775093079	1.0759948816794611
97.49650416004052	1.0760864358499975
97.82497559125743	1.0761780176018325
98.15349200672269	1.0762696269560577
98.48205343415688	1.0763612639013007
98.81065990553499	1.0764529284444766
99.13931144961707	1.0765446205936904
99.46800802496409	1.076636340356152
99.79674969332332	1.0767280877194776
100.12553646098289	1.0768198627000825
100.45436832023175	1.0769116652989026
100.78324533462133	1.0770034955129635
101.11216747394897	1.0770953533591918
101.44113478689964	1.0771872388283295
101.77014724945194	1.0772791519331535
102.09920492771765	1.0773710926661275
102.42830780553295	1.077463061044901
102.75745590509278	1.077555057064132
103.08664925081071	1.0776470807291976
103.41588783308588	1.077739132046096
103.7451717034591	1.0778312110113144
104.07450084859147	1.0779233176384375
104.4038753058517	1.0780154519229048
104.73329505553463	1.0781076138743402
105.0627601444515	1.078199803486397
105.39227058279242	1.078292020771342
105.72182640080874	1.0783842657311942
106.05142756367337	1.0784765383735895
106.38107416316264	1.0785688386879397
106.7107661514034	1.0786611666991104
107.04050355345427	1.0787535223928573
107.3702864122058	1.0788459057753599
107.70011471575789	1.078938316857796
108.02998850132525	1.079030755635992
108.35990776883834	1.079123222119537
108.689872557984	1.0792157163075702
109.01988283947422	1.0793082382103765
109.34993869263887	1.0794007878188998
109.68004006424557	1.0794933651545442
110.01018700274008	1.0795859702015338
110.34037952471708	1.0796786029726118
110.67061765547857	1.079771263471587
111.00090139893521	1.079863951704714
111.33123077005752	1.079956667672242
111.66160576999361	1.0800494113775243
111.99202647145836	1.080142182820032
112.32249280899097	1.0802349820193342
112.65300484951865	1.0803278089561947
112.98356258368298	1.080420663648558
113.31416606071107	1.080513546092941
113.64481527111275	1.080606456302322
113.97551022323069	1.0806993942731793
114.30625095203402	1.0807923600070004
114.6370374697047	1.080885353512758
114.96786978531688	1.0809783747930204
115.29874791416977	1.0810714238494796
115.6296718840149	1.081164500685579
115.96064168283687	1.081257605308264
116.29165735915912	1.0813507377132923
116.62271891485929	1.0814438979134549
116.95382634555253	1.0815370859084177
117.28497969510168	1.0816303016960809
117.61617897103858	1.0817235452879268
117.94742416573239	1.081816816685211
118.27871532303682	1.0819101158849154
118.6100524470697	1.0820034428985235
118.94143555821496	1.0820967977263258
119.27286468631605	1.0821901803731957
119.60433983608459	1.0822835908466728
119.93586100325656	1.0823770291472152
120.26742823386337	1.0824704952727466
120.5990415107287	1.0825639892353718
120.93070087222404	1.0826575110293721
121.26240633537996	1.0827510606646933
121.59415790876454	1.082844638145263
121.92595560115339	1.0829382434726216
122.25779943507514	1.083031876648367
122.58968941650063	1.083125537677977
122.92162556368142	1.0832192265622558
123.25360790846028	1.0833129433054742
123.58563644711067	1.0834066879157402
123.9177112116944	1.0835004603911191
124.2498322235081	1.083594260739782
124.58199947354595	1.083688088966861
124.91421299656793	1.0837819450689268
125.24647278885689	1.0838758290549138
125.57877887965883	1.0839697409228841
125.91113129744018	1.0840636806802153
126.24353001499681	1.0841576483340662
126.57597508790548	1.0842516438758545
126.90846652266514	1.0843456673204037
127.241004324676	1.0844397186686612
127.573588510268	1.0845337979212615
127.9062191074631	1.0846279050819296
128.23889611211507	1.0847220401577002
128.57161955655468	1.0848162031465036
128.9043894539015	1.0849103940565936
129.23720580971244	1.085004612890787
129.57006864866995	1.0850988596497588
129.90297796897516	1.085193134339598
130.23593381593014	1.0852874369588938
130.56893618636755	1.0853817675195776
130.90198508300222	1.0854761260198507
131.23508057539513	1.0855705124595771
131.56822261415672	1.0856649268575678
131.9014112447676	1.0857593691989191
132.2346464674076	1.0858538394956165
132.5679283284402	1.0859483377468033
132.90125681668758	1.0860428639647195
133.23463194714793	1.0861374181452867
133.5680537415771	1.0862320002918482
133.90152221508745	1.0863266104096647
134.2350373720083	1.0864212485021127
134.5685992609972	1.0865159145695067
134.90220786767608	1.0866106086247447
135.2358632269648	1.0867053306628307
135.56956532631096	1.0868000806927642
135.9033142010262	1.0868948587100635
136.2371098719131	1.086989664723839
136.57095232445428	1.087084498739082
136.90484162061927	1.0871793607507476
137.2387777224994	1.0872742507755242
137.57276068511294	1.0873691688017169
137.90679050923669	1.0874641148440398
138.24086721815502	1.0875590889017916
138.57499082014064	1.087654090980668
138.9091613223628	1.0877491210820964
139.24337875053862	1.087844179207189
139.57764313032524	1.0879392653623325
139.91195443995508	1.0880343795538998
140.24631274143877	1.0881295217747657
140.58071800768846	1.088224692041648
140.9151702949665	1.088319890345905
141.24966958468528	1.088415116702621
141.58421590975945	1.0885103711055706
141.91880929910468	1.0886056535631923
142.25344973489297	1.0887009640827872
142.58813723978744	1.088796302658341
142.92287185610675	1.0888916692953714
143.25765357418766	1.0889870640049992
143.59248240169606	1.0890824867835325
143.92735837111155	1.0891779376322148
144.26228148291077	1.089273416559363
144.5972517887304	1.0893689235641704
144.93226925384914	1.0894644586604194
145.26733393573636	1.0895600218372636
145.60244581490088	1.0896556131101502
145.93760493525826	1.0897512324725724
146.27281128015548	1.0898468799361136
146.60806489823608	1.0899425554950724
146.9433657901725	1.0900382591623834
147.2787139689379	1.0901339909372887
147.61410944532554	1.0902297508225414
147.94955225321786	1.0903255388202702
148.2850423838665	1.0904213549391994
148.62057986596568	1.0905171991758755
148.9561647201049	1.0906130715375402
149.2917969612618	1.0907089720291205
149.62747659737656	1.0908049006539402
149.96320362855002	1.0909008574133112
150.29897809159243	1.0909968423063017
150.63479998508438	1.0910928553424746
150.97066934043823	1.0911888965204628
151.30658616585444	1.0912849658482873
151.64255047189593	1.0913810633273302
151.97856230180275	1.0914771889596486
152.3146216264927	1.0915733427566505
152.65072849505344	1.0916695247090464
152.98688290528352	1.0917657348299183
153.32308489232736	1.0918619731176675
153.65933443685773	1.0919582395813872
153.99563157104092	1.0920545342145718
154.33197631999914	1.0921508570254606
154.66836871379965	1.092247208020277
155.00480871027366	1.0923435872066625
155.34129638069507	1.09243999457156
155.67783169978935	1.0925364301344165
156.01441471030353	1.0926328938870122
156.35104541471728	1.0927293858406217
156.68772383788078	1.0928259059949772
157.02444997577123	1.0929224543562248
157.36122386887408	1.093019030922229
157.69804550071098	1.09311563570362
158.03491492125065	1.0932122686946875
158.37183211398093	1.0933089299087833
158.7087971300395	1.0934056193401842
159.04580993888027	1.0935023370025805
159.38287059277206	1.0935990828862172
159.7199790967307	1.0936958570051103
160.0571354597441	1.0937926593597114
160.3943396764802	1.0938894899516112
160.73159180335958	1.0939863487782855
161.0688918306325	1.094083235854948
161.40623978601923	1.0941801511778044
161.74363567695758	1.0942770947538256
162.08107951311842	1.0943740665841535
162.4185713336453	1.0944710666705704
162.75611112771162	1.0945680950233314
163.09369892739434	1.094665151638326
163.43133473411277	1.0947622365237772
163.76901856861738	1.0948593496790937
164.10675043871723	1.0949564911092406
164.44453037170035	1.0950536608154617
164.7823583585919	1.0951508588046042
165.12023446841368	1.095248085073079
165.4581586373406	1.0953453396397461
165.79613095519264	1.0954426224852263
166.13415138729735	1.095539933634368
166.4722199833009	1.0956372730761803
166.81033671344795	1.095734640823949
167.14850161506467	1.095832036868092
167.48671473426393	1.095929461218347
167.82497604936188	1.0960269138869863
168.16328559967022	1.0961243948667483
168.50164338353548	1.0962219041679466
168.8400494062258	1.0963194417890887
