#t	L(t)	L_*(t)
0.0	0.7919805859129696	0.7828822101787821
0.0037083220761465387	0.7919765396531084	0.7828697184013866
0.005422042632594971	0.791824461302981	0.7823981091558978
0.007407614859103062	0.7917526814985157	0.7821742534144566
0.009406791319168988	0.791668171653121	0.7819098162751543
0.011513020612142598	0.7915815086496734	0.7816377606495026
0.01370602301336982	0.7914883710348564	0.7813444941853873
0.016003832542655583	0.7913892653520171	0.7810315342993834
0.01841372887400952	0.7912829494504556	0.7806948764166562
0.020948959496176082	0.7911685729190875	0.7803317219597017
0.023623970432972985	0.7910448983990807	0.7799380126895477
0.026457302147521882	0.7909104841346927	0.779508996747841
0.029472801013640384	0.7907634934060763	0.7790386072581901
0.032703338157703356	0.7906015532851514	0.7785189877690453
0.03619825907722669	0.7904214325116083	0.7779394239014372
0.04004276753822236	0.7902184063697951	0.7772842388384607
0.04433026674186713	0.7899846773773355	0.77652757486005
0.04886177172425776	0.7897103224188019	0.7756362566790794
0.05379948069212266	0.7894035258234509	0.7746356846290098
0.05826005640695152	0.7890479853067379	0.7734712076315287
0.06238569891383437	0.788706215823402	0.7723469650236121
0.06634966337275866	0.7883713325825379	0.7712408303560447
0.07017583188443823	0.7880313029988442	0.7701131537877463
0.07388839503827573	0.7876848828718794	0.7689596170431665
0.07749730863821341	0.7873304316456252	0.7677744900980042
0.08100974260216648	0.7869673667997719	0.7665554947347893
0.08443027988539674	0.786595261897257	0.7653008282698743
0.08776238567863015	0.7862138848878978	0.7640093025405474
0.0910087867451181	0.7858230848462099	0.7626799700610678
0.09417178054055081	0.7854227707185569	0.7613120554780772
0.09725337943978458	0.7850128884898824	0.7599048797929916
0.10025540208747079	0.7845934114904234	0.7584578279232966
0.10317952580961587	0.7841643338983554	0.7569703264282216
0.10602731998637223	0.7837256672391626	0.7554418310116021
0.10880026728899722	0.783277438243984	0.7538718183688895
0.11149977838442487	0.7828196876644936	0.7522597810968357
0.11412720222129284	0.7823524695633043	0.750605224059542
0.11668383380185811	0.7818758509605442	0.7489076618309098
0.11917092018637447	0.781389911659844	0.7471666166134502
0.12158966544325883	0.7808947442089064	0.745381616484451
0.12394123475761082	0.7803904539203451	0.743552193707408
0.12622675789234175	0.7798771589484021	0.741677883090497
0.1284473324853252	0.7793549904125281	0.7397582203566146
0.13060402665735657	0.7788240924786363	0.7377927401906603
0.1326978817416578	0.7782846225291765	0.735780974435895
0.13472991455940958	0.7777367512454222	0.733722449779132
0.13670111956486283	0.7771806627415474	0.7316166854273894
0.13861247094941462	0.7766165546828125	0.7294631905166841
0.14046492456533835	0.776044638362765	0.7272614611434046
0.14225941973904413	0.7754651387786262	0.7250109771534068
0.14399688097612157	0.7748782946900059	0.7227111986228759
0.14567821967431657	0.7742843586634671	0.7203615620323308
0.14730433569515577	0.7736835970648801	0.7179614759758377
0.14887611890700103	0.7730762900489957	0.7155103165937678
0.15039445066565366	0.7724627315110645	0.7130074225908005
0.15186020530828398	0.7718432290127851	0.7104520898918214
0.15327425150742874	0.7712181036525718	0.707843565822182
0.15463745366271434	0.7705876899438662	0.705181043093687
0.15595067331471993	0.7699523356324678	0.7024636533429242
0.15721477041581924	0.7693124014529978	0.6996904602540935
0.1584306047288557	0.7686682609044647	0.6968604526645
0.15959903705635822	0.7680202999181311	0.6939725371790173
0.16072093064007514	0.7673689165649265	0.6910255310246157
0.16179715237935582	0.7667145206278713	0.6880181544866861
0.1628285741794285	0.7660575332267603	0.6849490238986223
0.16381607425725989	0.7653983863240822	0.6818166445782321
0.16476053840812402	0.764737522201248	0.6786194042959682
0.16566286125704954	0.7640753929052608	0.6753555675042805
0.16652394761516728	0.7634124596475906	0.6720232704979104
0.16734471360965172	0.7627491920513603	0.6686205172494217
0.16812608796291809	0.762086067473305	0.6651451773497324
0.1688690130778741	0.761423570105571	0.6615949848829906
0.1695744461306623	0.7607621900896311	0.6579675397323486
0.17024335996809528	0.7601024224531223	0.6542603106479254
0.17087674394530636	0.7594447660028267	0.6504706410846876
0.17147560452337288	0.7587897220076696	0.6465957571497517
0.17204096565404634	0.7581377927845872	0.6426327784720134
0.17257386886981008	0.7574894801118675	0.6385787316860595
0.1730753730710447	0.7568452834986835	0.6344305667102568
0.17354655396717492	0.7562056982642626	0.6301851754146925
0.17398850302855845	0.7555712134164136	0.6258394123078014
0.17440232607033512	0.754942309475764	0.621390117798552
0.1747891412996671	0.7543194560692763	0.6168341422714647
0.17515007695009152	0.7537031095203318	0.6121683717837627
0.17548626836500575	0.7530937102915953	0.6073897534825167
0.17579885470571277	0.7524916805631168	0.6024953218614089
0.17608897524175274	0.7518974217812588	0.5974822236103643
0.17635776531076983	0.7513113123895263	0.5923477416316522
0.17660635206000744	0.7507337057919621	0.5870893177378009
0.1768358500559745	0.7501649285651846	0.5817045733273347
0.17704735685431466	0.7496052789972333	0.576191328026288
0.17724194868260193	0.7490550260411144	0.5705476166999986
0.17742067630522998	0.7485144086127107	0.5647717039532936
0.17758456117541419	0.7479836353319136	0.558862097118313
0.17773459199057484	0.7474628846955124	0.5528175580084216
0.17787172166954549	0.7469523055577859	0.546637112573267
0.1779968648335694	0.7464520180216436	0.5403200602997682
0.17811089579482287	0.7459621145858497	0.5338659824500414
0.1782146470783676	0.7454826615670572	0.5272747502719527
0.17830890844634878	0.7450137006669675	0.5205465324725917
0.17839442641737424	0.744555250706799	0.5136818031636172
0.17847190422590212	0.7441073093984951	0.5066813493333262
0.17854200219566468	0.7436698551884697	0.49954627912975746
0.17860533846102808	0.7432428490392595	0.4922780295649882
0.1786624899938817	0.7428262361950025	0.4848783748212302
0.17871399387994352	0.7424199478523296	0.4773494342685902
0.17876034879287883	0.742023902736329	0.46969368036189557
0.1788020269371492	0.741638008581563	0.46191394654488765
0.17883945294150616	0.7412620665712412	0.4540113544475163
0.1788730175918793	0.8123535622087078	0.7380209338690762
0.18248748189874517	0.812340161714327	0.7379555841416768
0.18378217805550803	0.810808036652545	0.7303192222976561
0.18500148331828445	0.8102111474186681	0.7272512239715526
0.18617244931381696	0.8096221571668349	0.7241692250714215
0.18729226698917054	0.8090294924080497	0.7210107481053142
0.18836432425473318	0.808435390843303	0.7177842898622058
0.18938998144841007	0.8078389666901882	0.7144815691798195
0.1903707288152827	0.8072403171805557	0.7110992734691615
0.19130779778510013	0.8066394347834996	0.7076332440929531
0.19220233372304713	0.8060364388577663	0.7040797751953253
0.19305540823878645	0.8054314922018174	0.7004351687110505
0.1938680521543952	0.8048248046957052	0.696695773539537
0.19464127231418737	0.8042166209021868	0.6928579301103187
0.1953760646838243	0.8036072153320015	0.6889179589831814
0.19607342326839713	0.8029968882914027	0.6848721534477393
0.19673434658358813	0.8023859632159004	0.6807167827864242
0.19735984214091817	0.8017747846454752	0.6764481019028499
0.19795092971805914	0.8011637167786256	0.672062367712104
0.19850864348923017	0.8005531421323465	0.6675558596534601
0.1990340333743848	0.7999434603510293	0.6629249049706312
0.19952816563261566	0.7993350868808058	0.6581659068989136
0.19999212282000406	0.7987284514995394	0.6532753756055716
0.2004270031252705	0.7981239965738417	0.6482499606295404
0.20083391910395537	0.7975221750177928	0.6430864840979033
0.20121399582835214	0.7969234479308498	0.6377819738150374
0.20156836849287654	0.7963282819157764	0.6323336953097457
0.20189817945626218	0.7957371460700473	0.6267391816582826
0.2022045748218587	0.7951505087771142	0.6209962609934233
0.20248870059146387	0.7945688342846361	0.6151030802955199
0.20275169846122304	0.7939925791984667	0.6090581253488604
0.2029947014145936	0.7934221890261968	0.6028602369957926
0.20321882915770162	0.7928580947593876	0.5965086224473941
0.20342518356144854	0.7923007097255051	0.5900028631670968
0.20361484419983633	0.7917504267069995	0.5833429186954125
0.20378886413262423	0.7912076154718081	0.5765291276964614
0.2039482659934025	0.7906726206808649	0.5695622057450064
0.20409403850361282	0.7901457603156603	0.562443241825187
0.2042271334531558	0.7896273245408563	0.5551736929938892
0.20434846320567143	0.7891175750668522	0.5477553787578479
0.2044588987511616	0.7886167449444571	0.5401904751728573
0.20455926829328472	0.7881250387422895	0.5324815089156985
0.20465035637699883	0.7876426331188199	0.5246313525956174
0.2047329035088597	0.7871696776430426	0.5166432201371756
0.20480760623358416	0.7867062958757886	0.5085206633706628
0.20487511762227478	0.786252586637161	0.500267569588561
0.20493604811074334	0.7858086253768289	0.49188815942005176
0.20499096663704205	0.7853744656413609	0.4833869855769343
0.20504040202412482	0.7849501405737396	0.4747689318550249
0.20508485441149976	0.7845356644021957	0.4660392119360795
0.20512477629044218	0.7841309403070538	0.45720128695719636
0.20516058311173532	0.8694441667092867	0.8096491937024899
0.21096727385443007	0.8694357686386472	0.8096079405704634
0.2129774874777454	0.8679871922566186	0.8023227558326387
0.2149865106265709	0.8674410749149808	0.7994862060659197
0.21691643602588456	0.8668689627699614	0.7964597364259588
0.21878500225904224	0.8662922521435181	0.7933505879135179
0.22058699998995693	0.8657060866180945	0.7901287762091533
0.2223236164609193	0.865112340345725	0.7868000849419877
0.22399497402579388	0.864511021866304	0.7833600738964296
0.22560179635664585	0.863902537303548	0.7798063684003466
0.22714489189924064	0.8632871392914075	0.7761355696442186
0.22862520364655675	0.8626650912198731	0.7723441648340176
0.23004374785896994	0.8620366431731828	0.7684283745794807
0.2314015968057364	0.8614020511723369	0.7643842590113082
0.23269986287759997	0.8607615823422068	0.7602077467923396
0.23393969058196332	0.8601155213253047	0.7558946774938885
0.2351222518688967	0.8594641746326696	0.7514408366786108
0.23624874447864896	0.8588078743698071	0.746841992504984
0.23732039177973865	0.8581469810529387	0.742093931910809
0.23833844395869253	0.8574818859428529	0.7371924992903909
0.23930417956237696	0.8568130126678961	0.7321336361244863
0.2402189075490766	0.8561408184630892	0.7269134239927306
0.24108396924040107	0.8554657946979141	0.7215281285782674
0.2419007401196789	0.8547884668576782	0.7159742457485611
0.24267063121832375	0.854109393814674	0.7102485481656801
0.24339508988270697	0.8534291663766481	0.7043481317758354
0.24407559988135766	0.8527484051058286	0.698270461369201
0.2447136805799648	0.8520677572868669	0.6920134130938479
0.2453108852326712	0.8513878931739522	0.6855753136963323
0.24586879812115414	0.8507095014101016	0.6789549738828754
0.2463890307841698	0.8500332839047225	0.6721517166174251
0.24687321705192336	0.8493599499894666	0.6651653965923446
0.2473230072263337	0.8486902103546498	0.6579964137093082
0.24774006135816007	0.848024770632129	0.6506457172397249
0.2481260418674193	0.8473643250315457	0.6431148029564016
0.24848260571792471	0.8467095501401596	0.635405702890721
0.24881139631130772	0.8460610990609323	0.6275209683561597
0.24911403542795887	0.8454195961740105	0.6194636487583315
0.24939211537766434	0.844785632514923	0.6112372658167733
0.24964719162037083	0.8441597619960465	0.6028457861123225
0.24988077602369474	0.8435424984469302	0.5942935923220494
0.2500943308903578	0.8429343135178465	0.585585454699826
0.25028926389407263	0.8423356354581419	0.576726504346272
0.2504669239356508	0.8417468486177541	0.5677222076746392
0.25062859797221754	0.84116829371097	0.5585783442963747
0.25077550878642235	0.8406002686508738	0.5493009872239237
0.2509088136441767	0.8400430298812745	0.5398964858411767
0.251029603772873	0.8394967941111176	0.5303714516661062
0.25113890457634147	0.8389617403422495	0.5207327464945235
0.2512376764865797	0.8384380120863058	0.5109874723099281
0.25132681636122567	0.8379257197112233	0.5011429628835455
0.25140715932347835	0.8374249428171664	0.4912067759985224
0.25147948095334816	0.8369357326183966	0.48118668641232665
0.25154451388505655	0.8364581142952756	0.4710906793372608
0.25160292094814724	0.835991983646504	0.46092460411342373
0.25165531032118604	0.9408360846629763	0.9219691954715846
0.2647246346563181	0.94083404292693	0.9219644716098739
0.2688542442836994	0.9403178499809499	0.9207525132806758
0.27413242548629657	0.9401514919762592	0.9203547328051875
0.27936134093435067	0.939936235320226	0.9198350953476429
0.28501936633712655	0.9397198367981999	0.9193072741881724
0.2910126529809825	0.9394818534671862	0.9187207476770906
0.2974836075958115	0.9392250874383867	0.918081079022947
0.3045630597438355	0.9389420224652045	0.9173679828301253
0.31259022177724094	0.9386248432698323	0.9165595203375968
0.3215520784851882	0.9382549300145008	0.9156046731356827
0.329919203495876	0.9378278805147975	0.9144871993864333
0.33816447038592934	0.9374145508498174	0.9133910910299726
0.34578986767591186	0.9369921881854081	0.912257162085779
0.35313646031662177	0.9365871712297803	0.9111574181198063
0.3602581773932057	0.9361828400409458	0.9100481423622292
0.36720447687530694	0.9357766770294306	0.9089230194065482
0.37399695579680386	0.935366084063249	0.9077752038347466
0.38065061821030205	0.9349498463962789	0.9066014879368273
0.38717484410664227	0.9345270336921302	0.9053993490833123
0.39357633577854645	0.9340969945764886	0.9041669753235938
0.39986002819527067	0.9336592081106969	0.9029028709063465
0.40602979363449254	0.9332132443869506	0.9016057580860484
0.412088803609642	0.9327587296770423	0.9002744858619554
0.4180397609516422	0.9322953289746507	0.8989079850100806
0.42388503974244685	0.9318227342746355	0.897505237568571
0.42962677478771794	0.9313406574138877	0.8960652582680224
0.4352669193254624	0.93084882537304	0.8945870823176343
0.44080728382305245	0.9303469771949585	0.8930697573881227
0.44624956243630354	0.9298348618672972	0.8915123380556869
0.45159535175114573	0.9293122368628964	0.8899138819190934
0.45684616502419395	0.9287788670960998	0.8882734467444008
0.4620034421670054	0.9282345240993635	0.8865900880941187
0.46706855869174047	0.9276789854731147	0.8848628576412705
0.47204283183910717	0.9271120343308292	0.88309080133541
0.47692752649987197	0.9265334589559211	0.8812729581068838
0.4817238599116986	0.9259430524151523	0.8794083583285089
0.48643300564697917	0.9253406122495188	0.8774960224167826
0.49105609750546125	0.9247259402001262	0.8755349594468846
0.49559423237384626	0.9240988418968185	0.8735241655538548
0.5000484733006997	0.9234591266366164	0.8714626225262369
0.5044198522295275	0.9228066070944304	0.8693492960902298
0.5087093720224728	0.9221410990355449	0.8671831341023046
0.5129180089543268	0.9214624210938321	0.8649630648583836
0.517046714478308	0.9207703944402724	0.8626879949465093
0.5210964171315061	0.9200648425226212	0.8603568072263065
0.5250660352632435	0.9193455907445128	0.8579683585010859
0.5289460110191762	0.9186128404335678	0.8555227294733
0.5327406709143249	0.9178685070022478	0.8530257559255946
0.5364505924904948	0.9171120053696163	0.8504749289626257
0.5400772919842104	0.9163434514650522	0.8478700575194225
0.5436219851893543	0.9155627785834705	0.8452103099933771
0.5470859186227124	0.9147699809551071	0.8424950334072494
0.550470284961531	0.9139650469524602	0.839723527147867
0.5537762482654116	0.9131479776675528	0.8368951057517053
0.5570049400708158	0.9123187820547566	0.8340090819388627
0.560157462839603	0.9114774785246077	0.8310647717258474
0.5632348914866906	0.9106240948468473	0.828061493739456
0.5662382753835047	0.9097586685119955	0.8249985701333883
0.569168639904793	0.9088812469707932	0.8218753270985614
0.572026988145514	0.9079918880001154	0.8186910958430075
0.5748143023798129	0.9070906600262729	0.8154452134490355
0.5775315456301873	0.9061776425312619	0.81213702405741
0.5801796629882344	0.9052529264330662	0.8087658799921249
0.5827595831225176	0.9043166145561855	0.8053311432478214
0.5852722194120862	0.9033688220493311	0.8018321868222564
0.5877184712429125	0.9024096769473422	0.7982683966166262
0.5900992252792756	0.901439320694881	0.7946391732392589
0.5924153565415519	0.9004579086916513	0.7909439339269557
0.5946677295088384	0.8994656109318165	0.7871821148574122
0.5968571992695981	0.8984626126574634	0.783353173554669
0.5989846125059293	0.8974491150097521	0.7794565913175502
0.6010508084810258	0.8964253357732794	0.7754918760300366
0.6030566200260272	0.8953915101448139	0.7714585650883027
0.6050028745230804	0.8943478915247389	0.7673562284267775
0.6068903948433508	0.893294752328865	0.7631844716199089
0.6087200001385527	0.8922323848396766	0.7589429391186933
0.6104925068478537	0.8911611021585628	0.7546313178547409
0.612208729434126	0.8900812390522626	0.7502493403653846
0.6138694813915351	0.888993152964933	0.7457967885005451
0.61547557591293	0.887897224869957	0.7412734963676701
0.617027826830576	0.8867938603313471	0.736679353987079
0.618527049382502	0.885683490381085	0.7320143100137426
0.6199740610218	0.8845665724872205	0.727278374611637
0.6213696822877528	0.883443591462313	0.7224716218224964
0.6227147375085528	0.8823150602725592	0.7175941912079015
0.6240100557322498	0.8811815209131327	0.7126462894342299
0.625256471432389	0.8800435450151608	0.707628190319636
0.6264548254685557	0.8789017345289241	0.7025402347968224
0.6276059657460742	0.8777567220489354	0.6973828288611592
0.6287107481745066	0.8766091712481108	0.692156441557694
0.6297700374770713	0.8754597768409048	0.6868616004236106
0.6307847080685153	0.8743092644484797	0.6814988860673472
0.6317556448454337	0.8731583901222084	0.6760689248379982
0.6326837440995409	0.872007939650395	0.670572380254031
0.6335699143257508	0.870858727368652	0.6650099420091654
0.6344150770705959	0.8697115946804415	0.6593823137005701
0.6352201677022852	0.868567408072514	0.6536901984893349
0.635986136193064	0.8674270567206419	0.6479342834421724
0.6367139477641113	0.8662914495158568	0.6421152220632488
0.6374045835084365	0.8651615116685625	0.6362336162066264
0.63805904083116	0.8640381806821128	0.6302899967671326
0.6386783337950442	0.8629224018932155	0.624284804645715
0.6392634932348041	0.8618151234112182	0.6182183716152431
0.639815566663457	0.860717290651778	0.6120909026016758
0.6403356179136596	0.8596298404214311	0.6059024596000528
0.64082472646557	0.8585536946540625	0.5996529481231649
0.641283986431515	0.8574897539153188	0.5933421070635534
0.6417145051802131	0.8564388907817763	0.5869695026464029
0.6421174015317728	0.8554019431966434	0.5805345269112605
0.6424938035751144	0.8543797080588026	0.5740364018953437
0.6428448460441579	0.8533729350588972	0.5674741889902112
0.6431716673478816	0.8523823210832177	0.5608468046230385
0.6434754061935202	0.8514085051388883	0.554153040888156
0.6437571979378302	0.8504520642011025	0.5473915925320603
0.6440181706975362	0.8495135098773133	0.5405610883027838
0.6442594412887198	0.8485932860717452	0.5336601265358719
0.6444821111234414	0.8476917677523098	0.52668731447411
0.6446872621182269	0.8468092607065119	0.5196413093687063
0.6448759527495601	0.8459460024069113	0.5125208613843762
0.6450492143077512	0.8451021637779915	0.5053248561023751
0.6452080474682523	0.8442778519295011	0.49805235688877825
0.6453534192317603	0.8434731135822456	0.4907026449593334
0.6454862602772067	0.8426879391095226	0.4832752568094642
0.645607462784917	0.8419222670977854	0.47577001888396453
0.6457178787344903	0.8411759891653501	0.468187077994856
0.6458183186812293	0.8404489549586209	0.4605269277249416
0.645909551002515	0.8397409771864984	0.45279043060501645
0.6459923015842653	0.8390518365486423	0.44497883572863506
0.6460672539171383	0.8383812864915757	0.43709379219951255
0.6461350495606247	0.8377290576864691	0.42913735824890026
0.6461962889244032	0.837094862169062	0.42111200616383276
0.6462515323276987	0.8364783971493724	0.4130206238363855
0.6463013012811926	0.8358793483972723	0.4048665122948317
