#t	L(t)	L_*(t)
0.0	0.8228026743716472	0.8216580559237918
0.006270805479691866	0.8227999195473841	0.8216509896123477
0.009899631103541081	0.8227651323676219	0.8215610513405185
0.01408787253950158	0.8227447282040086	0.8215077497491814
0.018361495349746987	0.8227208534894664	0.8214449333752937
0.02291217346116052	0.8226960738688669	0.8213792784326969
0.027708029210689735	0.8226691630489474	0.8213075050205045
0.032799314263474585	0.8226401557335892	0.8212296471041434
0.03821461329006233	0.8226085717748579	0.8211443508124657
0.04399893055747916	0.8225740168498007	0.8210504691565116
0.05020251929793339	0.8225359371891465	0.8209463976543482
0.056888208029926356	0.8224936666352354	0.8208301921385882
0.06413343652877042	0.8224463483079405	0.8206993435654935
0.07203671935865699	0.8223928742409428	0.8205505954996996
0.08072714092414898	0.8223317692982047	0.8203795994591812
0.09038313288514438	0.8222610078356516	0.8201803689284771
0.10127588671605153	0.8221776737833542	0.8199442698553006
0.11390467634078816	0.8220772311813913	0.8196578611221909
0.129717996531877	0.8219514581454537	0.819296804484965
0.15174478092003638	0.8217783170558044	0.8187961242383311
0.16585922245417997	0.8215040250641874	0.8179961726982202
0.17942438722300585	0.8213050543561358	0.8174118533291544
0.19238620188241767	0.8210943884290782	0.8167902821100977
0.20489195885110686	0.8208732930325586	0.8161353017286059
0.21696506055126744	0.8206396549314334	0.8154407374710099
0.2286448455210181	0.8203931918171665	0.8147057933764619
0.2399560094497308	0.8201332347832002	0.8139285052841337
0.25092189885629523	0.8198593251784647	0.8131075192290492
0.2615622788603399	0.8195709722457141	0.8122413725261595
0.2718949028882485	0.8192677151114048	0.8113286809094049
0.281935620220799	0.8189490959529198	0.8103680595222338
0.2916987467531111	0.8186146654323329	0.8093581402217621
0.30119726406472996	0.8182639793704689	0.808297562324082
0.3104430048055393	0.8178965988381446	0.8071849734471059
0.3194467973066154	0.8175120895303098	0.8060190280513848
0.3282185872826877	0.8171100215408964	0.804798387080391
0.3367675401443098	0.816689969159897	0.8035217175802805
0.34510212747218727	0.8162515107245212	0.8021876924119024
0.353230201072928	0.8157942285271172	0.8007949900764306
0.3611590567087484	0.8153177087484325	0.7993422945693547
0.3688954891523574	0.8148215414164826	0.7978282952715672
0.37644584035524015	0.8143053203952282	0.7962516868968081
0.3838160415568728	0.8137686433765221	0.7946111694196344
0.3910116500778232	0.8132111118899541	0.7929054480326037
0.39803788267982004	0.8126323313459158	0.7911332331830881
0.4048996437845952	0.8120319110204326	0.7892932404125055
0.41160155235558826	0.8114094641670427	0.7873841905675665
0.4181479642728972	0.8107646079837345	0.7854048095523112
0.4245429937575151	0.8100969637415447	0.7833538285621298
0.4307905319397944	0.8094061567906994	0.7812299839299416
0.4368942635821873	0.8086918166444534	0.7790320171995436
0.44285768293417804	0.8079535770807875	0.7767586752439859
0.44868410750008586	0.8071910761653698	0.774408710132206
0.45437669058465235	0.806403956355576	0.7719808792362284
0.4599384332589183	0.8055918646165332	0.7694739453676699
0.46537219483738523	0.8047544524721073	0.7668866767059928
0.47068070248068933	0.8038913761298352	0.7642178469476864
0.4758665607322652	0.8030022966216367	0.7614662354979793
0.48093225923264166	0.8020868798323847	0.7586306273092517
0.48588018066771466	0.8011447967205874	0.7557098133079692
0.4907126078830124	0.8001757234071682	0.7527025904081455
0.49543173007516517	0.7991793413135218	0.7496077616719786
0.5000396495037434	0.7981553373994228	0.7464241367761336
0.5045383865966123	0.7971034042079856	0.7431505318743193
0.5089298856261472	0.7960232401738465	0.7397857702739775
0.5132160192471786	0.7949145497400896	0.7363286825150586
0.5173985936050709	0.7937770436780467	0.7327781070777996
0.5214793521527119	0.7926104392035918	0.7291328904538373
0.5254599799661775	0.7914144603743003	0.7253918880921684
0.5293421075317553	0.7901888383119751	0.7215539647997091
0.5331273142587643	0.7889333115230144	0.7176179954473534
0.5368171317026663	0.7876476262670002	0.7135828658284664
0.5404130471109494	0.7863315369952348	0.7094474737398406
0.543916505968478	0.7849848066457694	0.7052107296156283
0.5473289151700307	0.783607207272129	0.7008715582151033
0.5506516455802026	0.7821985204365647	0.6964288995779152
0.5538860344146582	0.7807585378216997	0.6918817106754378
0.5570333879998353	0.7792870619340992	0.6872289673652346
0.5600949838205002	0.7777839066480223	0.6824696658550775
0.5630720726981947	0.7762488980795389	0.6776028252283789
0.5659658810706428	0.77468187544731	0.6726274899507008
0.5687776127398171	0.7730826919119936	0.6675427323334482
0.5715084511119612	0.7714512157454537	0.6623476560753068
0.5741595607630122	0.7697873312923541	0.6570413991796962
0.5767320893548036	0.7680909403870235	0.6516231383631181
0.5792271693186062	0.7663619636642585	0.6460920931763081
0.5816459195068854	0.7646003421120898	0.6404475309545153
0.5839894468249086	0.762806038771959	0.634688772306334
0.5862588477927647	0.7609790405924847	0.6288151971715616
0.5884552101345262	0.7591193604923929	0.6228262516388333
0.5905796141568844	0.7572270395775236	0.6167214553598459
0.5926331343952118	0.7553021497370463	0.6105004103019763
0.5946168409506069	0.7533447962349111	0.6041628096188059
0.5965318010633163	0.7513551208183218	0.5977084483420411
0.5983790804436921	0.7493333048795586	0.5911372344189749
0.6001597448489757	0.7472795731519946	0.5844492016771358
0.6018748615144555	0.7451941974718859	0.5776445232231694
0.6035255006509893	0.7430775010232351	0.5707235266594576
0.6051127369416859	0.7409298628668581	0.5636867105047328
0.6066376510971709	0.7387517228391491	0.5565347621309515
0.6081013314512961	0.7365435867496826	0.54926857702024
0.6095048755821599	0.7343060318853799	0.5418892794030069
0.6108493919224066	0.7320397128220187	0.5343982443174292
0.6121360015193035	0.7297453675753989	0.5267971212367146
0.6133658396982223	0.7274238237696142	0.5190878582341729
0.6145400579110281	0.7250760051416325	0.5112727277755684
0.6156598254800819	0.7227029377730265	0.5033543521471902
0.6167263312741424	0.7203057563999901	0.4953357297043874
0.6177407856246728	0.7178857106047383	0.4872202613066052
0.6187044218704455	0.7154441699326184	0.4790117737357006
0.6196184979949525	0.7129826289600385	0.47071454350963393
0.6204842980283556	0.7105027109512296	0.4623333164914372
0.6213031331975852	0.7080061704259902	0.4538733243050549
0.622076342887625	0.705494894279335	0.44534029626570915
0.6228052951122892	0.7029709007447881	0.43674046430504226
0.6234913865705085	0.7004363365660159	0.42808056197764194
0.624136042209482	0.6978934716888898	0.4193678150388724
0.6247407141022292	0.6953446912012312	0.4106099224470843
0.6253068796737786	0.6927924848130481	0.40181502856032447
0.6258360391784685	0.6902394335083841	0.39299168501871895
0.62632971242423	0.6876881936381793	0.38414880297990506
0.6267894347409664	0.6851414785901568	0.3752955959245745
0.6272167522018748	0.6826020384043279	0.3664415140682474
0.6276132162204964	0.6800726379686176	0.35759617237663344
0.627980377584982	0.6775560341071217	0.34876927310744094
0.6283197800984242	0.6750549524455876	0.3399705258510777
0.6286329539558576	0.6725720645467018	0.3312095667430449
0.628921409057042	0.6701099661762295	0.322495879882588
0.629186628440434	0.6676711571668966	0.3138387226797015
0.6294300619695413	0.6652580233228814	0.30524705682293807
0.6296531204847843	0.6628728211360778	0.29672948778783936
0.6298571705141631	0.6605176651238753	0.28829421243675496
0.6300435296708334	0.6581945182638023	0.27994897665050883
0.630213462793186	0.6559051852991511	0.27170104245085275
0.6303681788736556	0.6536513089570168	0.2635571650257538
0.6305088287852247	0.6514343687928151	0.2555235788867989
0.6306365037844227	0.6492556823464669	0.2476059922577066
0.6307522347422346	0.6471164082806465	0.23980958870922434
0.6308569920515477	0.6450175512474416	0.23213903530108357
0.6309516861308164	0.6429599680040523	0.22459849563593356
0.6310371684538663	0.6409443745941681	0.21719164727327303
0.6311142330215614	0.638971354143212	0.20992170193878232
0.6311836181898247	0.6370413650401703	0.20279142775199435
0.6312460199948924	0.6351547494258349	0.1958031732165702
0.6313020737252794	0.633311396281575	0.18895760753595775
0.6313523602490326	1.164155588841527	1.164155588841527
0.66525326048635	1.1641546880524714	1.1641546880524714
