#t	ell(t)
0.0	1.0208023306828737
5.6433766040642743e-05	1.0208699831811539
9.597364454757955e-05	1.021272881548845
0.00013569276817785848	1.021578284323396
0.00017487264865316519	1.0219063221035074
0.0002132406273196952	1.0222528141998082
0.0002508056533777684	1.022616393683486
0.0002875074220151161	1.0229980252648307
0.00032329302852374163	1.0233979953843013
0.0003580999360243313	1.0238165782560118
0.00039185938236024675	1.0242538313566305
0.00042449549025420994	1.024709585197918
0.0004559254659256924	1.0251833789743117
0.0004846112960579316	1.0256743989334256
0.0005096852809163327	1.0261561529003735
0.0005320150950241859	1.0266069302665373
0.0005521346361248321	1.0270346430503043
0.0005704115156809368	1.0274438390576344
0.0005870679508066416	1.0278375268384312
0.0006022864705617853	1.028216752455277
0.0006162142003378896	1.0285823794283797
0.0006289749663966489	1.0289350018916423
0.0006406750849885251	1.0292750895954075
0.0006514074734272577	1.0296030355987436
0.0006612544072736285	1.0299191917362476
0.0006702894816446866	1.0302238888999533
0.0006785790473854063	1.030517449341204
0.000686183290389864	1.0308001938223337
0.0006931570638825266	1.0310724453774243
0.0006995505453304424	1.0313345308789783
0.0007054097671187629	1.0315867811898558
0.0007107770512702871	1.0318295304665923
0.0007156913740620444	1.0320631148635282
0.0007201886757356122	1.0322878709866117
0.0007243021269298352	1.0325041342184178
0.0007280623624294045	1.0327122370105415
0.000731497686310202	1.0329125073095864
0.0007346342559154636	1.0331052670483252
0.0007374962462875661	1.0332908308585822
0.0007401060001963979	1.0334695049091862
0.000742484163288846	1.0336415860025525
0.0007446498091307404	1.0338073607606966
0.0007466205534451436	1.0339671050768706
0.0007484126596111047	1.034121083688636
0.0007500411362356048	1.0342695499135985
0.0007515198275148155	1.0344127455240362
0.0007528614972569039	1.0345509007373577
0.0007540779068734106	1.0346842343246452
0.0007551798879469001	1.0348129537991915
0.0007561774098275603	1.0349372556788892
0.0007570796426729498	1.0350573258115554
0.0007578950161438898	1.0351733397568326
0.0007586312740579781	1.0352854632001205
0.0007592955254040269	1.0353938523856279
0.0007598942918693749	1.0354986545771834
0.0007604335520896166	1.0356000085279646
0.0007609188035899208	1.0356980449482822
0.0007613551165246762	1.0357928911733552
0.0007617470586164013	1.0358846765892844
0.0007620988013909331	1.0359735103655832
0.0007624141561838795	1.0360594944101322
0.00076269660277965	1.0361427248215078
0.0007629493156750129	1.0362232923723227
0.0007631751883991847	1.0488413952645381
0.0008132758808929551	1.0488465776202194
0.0008304911896197097	1.0500863060965744
0.0008436678383445083	1.0505610652422128
0.0008553396352731619	1.0509453973124805
0.0008658390130576472	1.0513032980011507
0.0008753132924666771	1.0516412927478225
0.0008838693980636723	1.0519612548267618
0.0008916020354236216	1.0522642551601717
0.0008985939035161123	1.0525513411884848
0.0009049180440754876	1.0528234759654447
0.0009106392961650488	1.0530815624167826
0.0009158154973626967	1.0533264485984495
0.0009204984379417081	1.0535589330588575
0.0009247346398800468	1.0537797682972778
0.0009285660015028582	1.0539896633554542
0.0009320303376850608	1.054189285872548
0.0009351618374153854	1.0543792638314549
0.0009379914559722002	1.0545601871287564
0.0009405472532376324	1.0547326091024884
0.0009428546883241083	1.0548970480198732
0.0009449368777289624	1.0550539885848236
0.0009468148228169896	1.055203883463502
0.0009485076115619784	1.0553471548221411
0.0009500325980306878	1.0554841958890908
0.000951405562868059	1.0556153725113724
0.0009526409320022347	1.0557410247080679
0.0009537518232223339	1.0558614757347728
0.0009547500715918329	1.0559770272142424
0.0009556464331095454	1.0560879502507134
0.0009564506874611686	1.0561944953758085
0.0009571717247804984	1.0562968946255686
0.0009578176241287896	1.0563953628997371
0.0009583957247845836	1.0564900992224164
0.0009589126912463684	1.0565812879226724
0.0009593745725150433	1.0566690997574748
0.000959786856198351	1.0696881077445344
0.0010366854835030456	1.0696988555045355
0.0010663396221800333	1.0719128644846305
0.0010920799100138522	1.072896935548852
0.001114796108066482	1.0738235696404472
0.0011350735741015717	1.0747057931141528
0.0011533018704842951	1.0755518668367539
0.0011697770066435085	1.076366367305746
0.0011847091789376092	1.0771526794368405
0.0011982688267452234	1.0779122533316474
0.001210598957039124	1.0786460323109115
0.0012218218234582598	1.079354701093876
0.0012320435849811123	1.0800387825508888
0.0012413575154865686	1.0806987059969502
0.001249846329604183	1.0813348483082204
0.0012575839105171968	1.08194756064087
0.0012646366333776999	1.0825371854450474
0.00127106440025828	1.083104067627796
0.0012769214685385815	1.0836485617129177
0.0012822571248969946	1.0841710365305164
0.0012871162445640897	1.0846718781559594
0.0012915397613612722	1.0851514918315348
0.0012955650677045204	1.0856103031300772
0.0012992263598531068	1.086048758550118
0.001302554938464605	1.0864673257702693
0.001305579472257235	1.0868664935725398
0.0013083262315882942	1.0872467714186038
0.001310819297317137	1.0876086887422751
0.001313080746666448	1.0879527940274345
0.0013151308219358354	1.0882796533772192
0.0013169880825131838	1.0885898489330637
0.001318669543068933	1.0888839768799101
0.0013201907992131468	1.0891626451654264
0.0013215661426239985	1.0894264709007548
0.0013228086660593654	1.089676077586446
0.00132393035987897	1.0899120920917829
0.001324942200498124	1.0901351415574403
0.0013258542318418149	1.0903458502145071
0.0013266756402315206	1.0905448362538128
0.0013274148402944933	1.0907327087766008
0.0013280795973939269	1.0909100690731066
0.0013286768939170454	1.0910775242111241
0.0013292130963824035	1.0912356376007262
0.0013296940133185684	1.0913849518496797
0.0013301249413442556	1.0915259890211315
0.0013305107070592337	1.0916592494043773
0.0013308557056982962	1.0917852104576613
0.0013311639367698932	1.1053103863858642
0.0013346777089088067	1.105351217456951
0.001336693891218086	1.1058378925677461
0.0013384272820097548	1.1061373902197642
0.00133998498412475	1.1064091267839862
0.0013413899878346074	1.1066664753772162
0.001342656093732251	1.1069110802149529
0.001343796370767672	1.1071433713176368
0.001344822632876556	1.107363860835073
0.0013457457682067946	1.1075730370029937
0.00134657554715604	1.107771409739958
0.0013473208477678665	1.1079594524982364
0.001347989746708216	1.1081376280941775
0.0013485895903764319	1.1083063913159086
0.0013491270588155847	1.108466188836297
0.0013496082238221509	1.10861745874963
0.0013500386019313377	1.1087606299054735
0.001350423202811877	1.108896121097847
0.0013507665734775378	1.1227777326049262
0.0013521968718104634	1.1228274924125201
0.0013531937821940727	1.123043606766036
0.0013540692323498393	1.1232040497555007
0.001354855332815606	1.1233530457493803
0.001355562027874094	1.1234945801219978
0.0013561969038205601	1.1236293320365585
0.0013567667672292432	1.1237576954022497
0.0013572778163181483	1.1238800244718776
0.001357735699427196	1.1239966539398514
0.001358145561109035	1.1241079006902854
0.0013585120840005095	1.12421406413107
0.001358839527390953	1.138363686932616
0.0013637813743499227	1.1383864393936958
0.001366467329679194	1.1387446437802473
0.001368775573862888	1.1389529733620964
0.0013708608717382601	1.139141502683021
0.0013727509392379485	1.1393208128838275
0.0013744617138365333	1.1394921099837971
0.0013760093160450168	1.1396557353934524
0.0013774082806538928	1.1398121438315496
0.0013786719622968892	1.1399617402513027
0.0013798125857515404	1.140104908190002
0.0013808413432831468	1.1402420062039058
0.0013817684759143741	1.1403733697264014
0.0013826033499387922	1.1404993120435345
0.0013833545689693394	1.1406201254908528
0.00138403002145989	1.1407360892970468
0.0013846368232144116	1.1408474701084885
0.0013851814634148597	1.140954503628323
0.0013856698618825007	1.1410574082278033
0.001386107415905154	1.141156387050363
0.001386499043046967	1.141251629123605
0.0013868492206178913	1.1413433103581134
0.0013871620220971023	1.15579418011852
0.0014455053554476547	1.1558051220553396
0.0014694084503510591	1.1580076748926502
0.0014895966004316956	1.1590155794133674
0.0015081065439445107	1.1599233129276534
0.001525120344723048	1.16080654019057
0.001540757492551887	1.1616663643284963
0.0015551320016180465	1.162501818167672
0.0015683452642548856	1.1633123656146367
0.0015804894395022497	1.1640974693871915
0.0015916484889882208	1.1648566933235756
0.0016018992603851014	1.1655896977156062
0.0016113123100629269	1.1662962482258525
0.0016199525753435387	1.166976218272952
0.0016278799379162343	1.1676295888110255
0.0016351496941363368	1.1682564464195755
0.0016418129608435136	1.168856979321813
0.001647917026609369	1.1694314723288237
0.0016535056609779135	1.1699803006569058
0.0016586193880355387	1.170503922996801
0.001663295733027294	1.1710028738803278
0.0016675694444033928	1.1714777557589031
0.0016714726958027561	1.1719292307431761
0.0016750352708638802	1.1723580122192359
0.0016782847336522866	1.1727648564746698
0.001681246584643217	1.1731505545162053
0.0016839444064157545	1.1735159239668322
0.001686399998235164	1.1738618014432898
0.0016886335007274473	1.1741890352652626
0.0016906635130798124	1.1744984785707224
0.0016925072011885396	1.1747909831080388
0.001694180399317801	1.1750673934398872
0.0016956977045118667	1.1753285418501083
0.0016970725651327952	1.175575243786902
0.0016983173632509922	1.1758082939773513
0.0016994434919163492	1.1760284630972324
0.0017004614271275567	1.1762364950829458
0.0017013807949832831	1.1764331049713384
0.0017022104345810283	1.1766189772551572
0.0017029584565910502	1.1767947647687447
0.001703632297805768	1.1769610879958903
0.001704238772262076	1.1771185347551962
0.0017047842146902933	1.1772676602977346
0.0017052743152666636	1.1774090132310597
0.0017057142666171443	1.1775430844327803
0.0017061088135179598	1.177670331394813
0.0017064622887657357	1.1777911820386247
0.0017067786457324729	1.1779060360488693
0.001707061488576919	1.1929404220847246
0.0017163919884702686	1.1929686035773681
0.0017207118729610262	1.1939393652231438
0.0017243230030552982	1.1944195246809128
0.0017275712297181842	1.1948386650432774
0.0017305137672336875	1.195231465761829
0.001733175079151604	1.1956020268649852
0.0017355813453968345	1.1959509728256947
0.001737755786605129	1.1962794385163587
0.0017397196541113062	1.1965884644185718
0.0017414922970123842	1.196879089945566
0.0017430913514460149	1.1971523321949147
0.0017445328905691605	1.1974091839944072
0.0017458315630420119	1.197650609386142
0.001747000717778565	1.1978775401677233
0.0017480526052281646	1.1980908729321786
0.0017489983456420398	1.1982914838995427
0.0017498479952041067	1.1984802036864153
0.0017506107059810912	1.1986578085291473
0.0017512948088586188	1.1988250328257817
0.0017519078844134507	1.1989825699913608
0.0017524568273647517	1.1991310727511597
0.0017529479054962625	1.1992711537308556
0.0017533868136138417	1.199403386350433
0.001753778722962463	1.2148813007198547
0.0017619687068319758	1.214923824785704
0.0017661383308407103	1.215853428150067
0.0017696964618199192	1.2163608002705038
0.00177291513696496	1.2168153663110572
0.001775837933004384	1.217246183735627
0.001778488531856687	1.2176558461313323
0.0017808912252849226	1.218044724829716
0.0017830678366564517	1.2184135848901847
0.0017850384160059479	1.21876314089206
0.0017868213101836616	1.2190941283737642
0.0017884333168965922	1.2194072884275151
0.0017898898104599318	1.2197033668105246
0.0017912048592627723	1.2199831105236727
0.0017923913324792151	1.2202472648280345
0.0017934609983943032	1.2204965701216246
0.0017944246142765677	1.220731758972119
0.0017952920089630297	1.2209535531656504
0.0017960722599185252	1.2211626608902262
0.001796773563624165	1.2213598002640407
0.0017974033656879042	1.22154564918395
0.0017979684553563347	1.2217208561006982
0.0017984750220792947	1.221886046448645
0.0017989287051590431	1.2220418216974434
0.0017993346393773712	1.2221887580565693
0.001799697496980366	1.2223274054610551
0.0018000215263881336	1.2381841142474657
0.0018027488454695941	1.2382317414166166
0.0018044114384117296	1.2386478923244912
0.0018058538490508948	1.238916901426803
0.0018071517247382385	1.2391615600783163
0.0018083229791203109	1.2393921970165092
0.0018093785521943152	1.239610344778733
0.0018103292162209939	1.2398165256168157
0.0018111847188572304	1.2400113959486714
0.0018119540587691694	1.240195576764596
0.0018126453294847176	1.2403696928941046
0.0018132659083125377	1.2405343220550102
0.0018138225237416422	1.240690018033133
0.0018143213093153939	1.2408373113978652
0.0018147678526547906	1.240976708676922
0.0018151672406653467	1.241108691683615
0.0018155241011689176	1.257396082681295
0.0018197904480700849	1.2574361386745279
0.0018222190724833743	1.2579362725915406
0.0018243152008682413	1.258241145626594
0.0018262065138970845	1.2585185065633975
0.0018279182646627496	1.2587820215695453
0.0018294653792028269	1.2590332037962704
0.001830862829547918	1.2592723777338861
0.0018321241221580826	1.259500051321223
0.0018332616526762812	1.2597166886351792
0.0018342867575043636	1.2599227484845223
0.0018352098045914776	1.2601186788134724
0.0018360403256161032	1.2603049182718016
0.0018367870410086584	1.2604819085093155
0.0018374578250655365	1.2606500869346866
0.001838059858878859	1.2608098629085673
0.0018385996930310722	1.26096163528011
0.0018390832995371833	1.2611057933892145
0.0018395161192639369	1.261242716622997
0.0018399031056803175	1.2613727737465201
0.0018402487652491777	1.2780254928136494
0.0018421368136537688	1.2780643747028162
0.001843386438231766	1.278286242348581
0.0018444756975924989	1.2784434561083509
0.001845452202936846	1.2785888359688542
0.00184632917937263	1.2787271682467956
0.0018471163198370815	1.2788592110574681
0.0018478222615778486	1.2789853649107767
0.00184845484745062	1.2791059769428648
0.001849021207846232	1.2792213675346256
0.001849527823262654	1.2793318338769126
0.0018499805804921524	1.279437651596924
0.001850384824068469	1.296516783376614
0.0018794961803230666	1.2965348701332833
0.0018910103498034044	1.2979219546605838
0.0019004282150399477	1.2985237538250092
0.001908921929736905	1.29904311271996
0.0019166547174732285	1.2995353733710329
0.0019236830426967845	1.3000058841109743
0.0019300725070889944	1.3004545315651022
0.001935879973638698	1.3008821465606446
0.0019411573487579956	1.301289407810063
0.0019459516844570585	1.3016770304800973
0.0019503057718555051	1.3020457329740096
0.001954258567435293	1.302396240722464
0.0019578455768194027	1.3027292829580432
0.001961099187687962	1.3030455902675715
0.0019640489630629314	1.3033458917005658
0.001966721901337993	1.3036309117759566
0.001969142667598933	1.303901367489182
0.0019713338009671555	1.3041579653521482
0.0019733159006974045	1.3044013986001524
0.0019751077938353115	1.3046323445669488
0.0019767266873688856	1.3048514622765248
0.0019781883058503126	1.3050593903684307
0.001979507016724715	1.305256745276383
0.0019806959444526357	1.3054441197483118
0.0019817670747160504	1.3056220816798718
0.001982731349673498	1.3057911732729743
0.001983598843419276	1.305951910502405
0.0019843786901692765	1.3061047988829722
0.001985079165208006	1.3062503091047168
0.0019857078090327112	1.3063888759745559
0.0019862714927022817	1.306520908019252
0.0019867764740849076	1.3066467888468793
0.001987228449307854	1.30676687796182
0.001987632600015201	1.3068815116526078
0.001987993636793768	1.3244875212305542
0.0019986178799769627	1.3245111860830692
0.0020036615355968758	1.3252421151511564
0.00200791788419658	1.3256161143767664
0.002011763493297149	1.3259481624793008
0.0020152566293964763	1.3262631765092259
0.0020184249393128033	1.3265636225749065
0.0020212977674665487	1.3268497976527451
0.002023901250899006	1.3271223543219335
0.002026259375319192	1.3273818732238998
0.0020283940434236603	1.3276289345964523
0.002030325277149551	1.3278641053588123
0.0020320713774194987	1.3280879403140453
0.0020336490722505127	1.3283009809144422
0.002035073650221769	1.3285037544012872
0.0020363590822462716	1.3286967728411296
0.0020375181321633912	1.3288805322479422
0.0020385624578052115	1.3290555117183447
0.0020395027034759735	1.3292221726717923
0.002040348652351787	1.3293809582201799
0.0020411092129105166	1.3295323051609345
0.0020417924394083966	1.3296766296411642
0.002042405670544888	1.329814315668019
0.0020429555942956283	1.3299457269390977
0.0020434483025965062	1.3300712078885053
0.002043889341259549	1.3301910839676852
0.002044283755852856	1.3303056619870608
0.0020446361338642767	1.3484009765377283
0.002051006918592983	1.34842395170459
0.0020543430828881826	1.3488583455519725
0.00205719078926424	1.3491026493492115
0.0020597594065218465	1.3493225127504727
0.0020620868354610643	1.3495314653461195
0.0020641928466952767	1.3497311386791082
0.0020660978026563	1.3499218932637638
0.0020678198957881475	1.3501042652733484
0.002069375776675254	1.3502787256060498
0.0020707806244665695	1.3504457215870411
0.002072048288042338	1.3506056714295063
0.002073191401090994	1.3507589666112063
0.0020742214880729456	1.350905972975633
0.0020751490599669317	1.3510470320630004
0.002075983736052665	1.3511824624070288
0.0020767343293873895	1.3513125664302734
0.002077408777771532	1.3514376347490813
0.0020780143075326105	1.3515579241989966
0.002078557500818964	1.3516736726021605
0.0020790443507868917	1.3517851010691595
0.0020794803116243057	1.35189241523245
0.0020798703443666673	1.3519958063431488
0.0020802189589016916	1.3520954523122184
0.002080530252536356	1.3706159895626036
0.0021156157278585308	1.3706271376429704
0.0021281508327414982	1.3719645937938079
0.00213822782590907	1.372487743733082
0.002147320426433154	1.372929490133377
0.0021556147537737025	1.3733466114725184
0.0021631658866232703	1.3737445841189273
0.0021700421558505448	1.3741234611262234
0.0021763023812611383	1.3744842173456526
0.002182000479301998	1.3748276540500244
0.0021871854146819636	1.375154586208971
0.0021919018156858925	1.3754658076249189
0.0021961903938589843	1.3757620942788071
0.0022000883283471214	1.3760442010361364
0.002203629599175407	1.3763128597545196
0.002206845281881478	1.37656877741674
0.0022097638091479904	1.3768126346015477
0.002212411204363749	1.3770450842818387
0.002214811290979059	1.3772667509530443
0.002216985881033558	1.3774782300711992
0.0022189549456705765	1.377680087789949
0.0022207367696142916	1.3778728609846844
0.0022223480916959827	1.37805705751335
0.002223804232589348	1.3782331567037989
0.002225119211828483	1.3784016099915195
0.002226305854541173	1.3785628417546898
0.0022273758893573744	1.3787172502410698
0.0022283400380386357	1.378865208610309
0.0022292080979329416	1.3790070660271605
0.0022299890844210547	1.3791431488291022
0.002230691207298054	1.3792737732592333
0.0022313218930064497	1.379399233427676
0.002231887911790599	1.3795197932526613
0.0022323954364633046	1.3796356978324502
0.002232850092090035	1.3797471754181285
0.0022332570013598313	1.3798544385966105
0.00223362082635213	1.3799576853617577
0.00223394580704862	1.3990315181127457
0.0022744814908975458	1.399043679668523
0.0022883109088605636	1.4006695115587169
0.0022994531974376196	1.4012816729204387
0.002309568838115361	1.4018008120849734
0.0023188320541962506	1.4022948299652482
0.0023272985084521985	1.4027686264845867
0.002335036560920842	1.4032219155235488
0.0023421058856611505	1.4036553716565887
0.002348561716088536	1.4040695393535028
0.002354454683793287	1.4044650202694802
0.0023598313285363467	1.4048424345968233
0.0023647344382284794	1.4052024220223245
0.0023692033707339126	1.4055456357249396
0.0023732743382596693	1.4058727377819573
0.0023769806629328305	1.406184394527103
0.002380353010237385	1.4064812721312627
0.0023834195992655047	1.4067640326731758
0.0023862063947733838	1.4070333304145786
0.002388737283192238	1.4072898084748087
0.002391034233479691	1.4075340959283382
0.0023931174455423592	1.4077668052476502
0.00239500548604221	1.40798853020253
0.0023967154141137387	1.4081998440599388
0.0023982628973377522	1.408401298207272
0.002399662318735946	1.4085934211213431
