#t	L(t)	L_*(t)
0.0	0.7820092436292201	0.7735207696768974
5.6433766040642743e-05	0.781976219828882	0.7734107053115244
9.597364454757955e-05	0.7817794381010578	0.7727515477112807
0.00013569276817785848	0.7816301567440965	0.7722476221151953
0.00017487264865316519	0.7814697085238638	0.7717021242223707
0.0002132406273196952	0.7813001279881935	0.7711210371565814
0.0002508056533777684	0.781122077244852	0.7705056738922899
0.0002875074220151161	0.7809350778421832	0.769853290713003
0.00032329302852374163	0.7807389834988844	0.7691620838712931
0.0003580999360243313	0.7805336541983422	0.768430034743122
0.00039185938236024675	0.7803190565464578	0.7676552193575069
0.00042449549025420994	0.7800952689921664	0.7668357823131612
0.0004559254659256924	0.7798625136220353	0.7659699994993145
0.0004846112960579316	0.7796211866669251	0.765056332758182
0.0005096852809163327	0.7793843136078141	0.7641419605861733
0.0005320150950241859	0.7791625874160932	0.7632684829455633
0.0005521346361248321	0.77895213536568	0.7624218693810064
0.0005704115156809368	0.7787507330528662	0.761593783749785
0.0005870679508066416	0.7785569096525731	0.7607783930046297
0.0006022864705617853	0.778370158124419	0.7599735559617917
0.0006162142003378896	0.7781900599554296	0.7591773601466465
0.0006289749663966489	0.7780163282738286	0.7583883476719051
0.0006406750849885251	0.7778487366894109	0.757605242927507
0.0006514074734272577	0.777687095963696	0.7568268695356777
0.0006612544072736285	0.7775312366505455	0.7560520843337012
0.0006702894816446866	0.7773809991851615	0.7552797387420579
0.0006785790473854063	0.7772362278841389	0.7545086541549476
0.000686183290389864	0.7770967674694427	0.753737606559517
0.0006931570638825266	0.7769624612539162	0.7529653174229799
0.0006995505453304424	0.7768331504013681	0.752190448769073
0.0007054097671187629	0.7767086738789918	0.7514116010718078
0.0007107770512702871	0.7765888688243026	0.7506273128781287
0.0007156913740620444	0.7764735712045356	0.7498360618114783
0.0007201886757356122	0.7763626165970697	0.7490362661588764
0.0007243021269298352	0.7762558410313958	0.748226286818365
0.0007280623624294045	0.776153081845538	0.7474044294265698
0.000731497686310202	0.7760541784751446	0.7465689461330438
0.0007346342559154636	0.7759589732092411	0.7457180373225045
0.0007374962462875661	0.7758673118354942	0.7448498526783401
0.0007401060001963979	0.7757790442228553	0.743962491976251
0.000742484163288846	0.7756940247757004	0.7430540049676693
0.0007446498091307404	0.7756121128431416	0.7421223911242365
0.0007466205534451436	0.7755331729965254	0.7411655983188823
0.0007484126596111047	0.7754570752464118	0.7401815210918168
0.0007500411362356048	0.7753836951787114	0.7391679982365976
0.0007515198275148155	0.7753129140217656	0.7381228097560256
0.0007528614972569039	0.7752446186558055	0.737043673258758
0.0007540779068734106	0.7751787015636971	0.7359282396831268
0.0007551798879469001	0.7751150607418359	0.7347740885316355
0.0007561774098275603	0.7750535995742424	0.7335787225947527
0.0007570796426729498	0.77499422667528	0.7323395621671177
0.0007578950161438898	0.7749368557041575	0.7310539387036613
0.0007586312740579781	0.7748814051633651	0.7297190880557709
0.0007592955254040269	0.7748277981874446	0.7283321433703986
0.0007598942918693749	0.7747759623178402	0.7268901274742069
0.0007604335520896166	0.7747258292731486	0.7253899448682039
0.0007609188035899208	0.7746773347201618	0.7238283734258169
0.0007613551165246762	0.7746304159670409	0.7222019809897385
0.0007617470586164013	0.7745850092806889	0.7205069924070543
0.0007620988013909331	0.7745410609044034	0.7187396765767119
0.0007624141561838795	0.774498520651695	0.7168961503908218
0.00076269660277965	0.7744573411895622	0.7149723515338057
0.0007629493156750129	0.7744174778009685	0.7129640260427814
0.0007631751883991847	0.7812280197463395	0.7598391504308006
0.0008132758808929551	0.7812254689204929	0.7598274249133787
0.0008304911896197097	0.7806150411030767	0.7568877499413319
0.0008436678383445083	0.7803811643582881	0.7556754964791916
0.0008553396352731619	0.7801917901023961	0.7546490220441144
0.0008658390130576472	0.7800154044546981	0.7536503849088797
0.0008753132924666771	0.7798487980659191	0.752663092235265
0.0008838693980636723	0.7796910525073555	0.751682323918688
0.0008916020354236216	0.7795416440378948	0.7507052918524466
0.0008985939035161123	0.7794000598881689	0.749729095976981
0.0009049180440754876	0.7792658283873275	0.7487509244301999
0.0009106392961650488	0.7791385070851253	0.7477679931492379
0.0009158154973626967	0.7790176802253355	0.7467775396997262
0.0009204984379417081	0.7789029561552995	0.745776812973158
0.0009247346398800468	0.7787939656647807	0.7447630666769699
0.0009285660015028582	0.7786903607448062	0.7437335539242438
0.0009320303376850608	0.7785918136052311	0.7426855223341527
0.0009351618374153854	0.778498015839717	0.7416162092143372
0.0009379914559722002	0.7784086776737793	0.7405228366381135
0.0009405472532376324	0.7783235272303751	0.7394026060005746
0.0009428546883241083	0.7782423098125466	0.7382526922312136
0.0009449368777289624	0.7781647871740263	0.7370702374337127
0.0009468148228169896	0.7780907367790183	0.7358523440030367
0.0009485076115619784	0.7780199510543029	0.7345960672835327
0.0009500325980306878	0.7779522366279932	0.7332984076440081
0.000951405562868059	0.7778874135698165	0.7319563021577158
0.0009526409320022347	0.777825314631937	0.7305666158134688
0.0009537518232223339	0.7777657807763158	0.7291260386647528
0.0009547500715918329	0.7777086635871694	0.7276311237216917
0.0009556464331095454	0.7776538296700014	0.726078414903369
0.0009564506874611686	0.7776011557420975	0.7244643489476484
0.0009571717247804984	0.7775505276110071	0.7227852364929004
0.0009578176241287896	0.7775018395072748	0.7210372501468536
0.0009583957247845836	0.7774549934654923	0.7192164126257056
0.0009589126912463684	0.7774098987445375	0.7173185848512976
0.0009593745725150433	0.7773664712759787	0.7153394536519946
0.000959786856198351	0.7842469021549736	0.7615223772035278
0.0010366854835030456	0.7842416112814556	0.7615011456328664
0.0010663396221800333	0.7831512351956104	0.7570025161902295
0.0010920799100138522	0.7826663188176382	0.7549151482411021
0.001114796108066482	0.7822095702372737	0.7528934597949407
0.0011350735741015717	0.7817745991820042	0.7509131076325791
0.0011533018704842951	0.781357354585282	0.7489580468641657
0.0011697770066435085	0.7809555961810819	0.7470192634076217
0.0011847091789376092	0.7805676676287991	0.7450896974479339
0.0011982688267452234	0.7801928645364233	0.7431664871330252
0.001210598957039124	0.7798307308914153	0.7412478805384963
0.0012218218234582598	0.7794809370181749	0.739332746772779
0.0012320435849811123	0.779143232100075	0.737420408917912
0.0012413575154865686	0.7788174106613935	0.735510519139153
0.001249846329604183	0.7785032924082738	0.7336029835500265
0.0012575839105171968	0.778200709140957	0.7316979103583369
0.0012646366333776999	0.7779094964327461	0.7297955730776562
0.00127106440025828	0.7776294881806691	0.7278963808669365
0.0012769214685385815	0.7773605131204105	0.7260008526414715
0.0012822571248969946	0.7771023925520023	0.7241095917072065
0.0012871162445640897	0.7768549389231978	0.7222232597455687
0.0012915397613612722	0.7766179549100112	0.7203425485539308
0.0012955650677045204	0.7763912328675753	0.718468149376003
0.0012992263598531068	0.776174554558593	0.7166007198846241
0.001302554938464605	0.7759676910475667	0.7147408486639824
0.001305579472257235	0.7757704027565344	0.7128890179039916
0.0013083262315882942	0.7755824396906332	0.7110455652513542
0.001310819297317137	0.7754035418025519	0.7092106454796799
0.001313080746666448	0.7752334394618883	0.7073841925666424
0.0013151308219358354	0.7750718541750299	0.7055658847153928
0.0013169880825131838	0.7749184993784624	0.7037551115695042
0.001318669543068933	0.774773081435955	0.7019509459840378
0.0013201907992131468	0.7746353007765275	0.7001521206648487
0.0013215661426239985	0.7745048531893123	0.6983570107391076
0.0013228086660593654	0.7743814312043318	0.6965636220466979
0.00132393035987897	0.7742647255947225	0.6947695861268772
0.001324942200498124	0.7741544269163916	0.6929721610694505
0.0013258542318418149	0.7740502270885645	0.6911682383637199
0.0013266756402315206	0.7739518209490016	0.6893543546286064
0.0013274148402944933	0.7738589077685339	0.6875267076681196
0.0013280795973939269	0.7737711906246711	0.6856811308850759
0.0013286768939170454	0.7736883696859627	0.6838129103338279
0.0013292130963824035	0.7736101666666453	0.6819172993161542
0.0013296940133185684	0.7735363135284647	0.6799893119880563
0.0013301249413442556	0.7734665523575222	0.6780237242583131
0.0013305107070592337	0.7734006359760992	0.6760150905301312
0.0013308557056982962	0.7733383284690384	0.673957759805417
0.0013311639367698932	0.78024580424712	0.7152630242332635
0.0013346777089088067	0.7802256236964868	0.715013445647368
0.001336693891218086	0.7799850744515179	0.7118952788868819
0.0013384272820097548	0.779837030074055	0.7098297824526878
0.00133998498412475	0.7797027007088141	0.7078439958249492
0.0013413899878346074	0.7795754772338492	0.7058524581804954
0.001342656093732251	0.7794545478275569	0.7038464043698031
0.001343796370767672	0.7793397007792354	0.7018256058929535
0.001344822632876556	0.7792306836823796	0.6997889348805432
0.0013457457682067946	0.7791272558672709	0.6977351618078566
0.00134657554715604	0.7790291658632458	0.6956624731351998
0.0013473208477678665	0.7789361801576534	0.6935689991161674
0.001347989746708216	0.7788480704314077	0.6914525550237348
0.0013485895903764319	0.7787646122755068	0.6893105837110904
0.0013491270588155847	0.7786855852395077	0.6871401263978792
0.0013496082238221509	0.7786107730656792	0.6849378015376447
0.0013500386019313377	0.7785399640230977	0.68269979109075
0.001350423202811877	0.7784729513129651	0.6804218342286548
0.0013507665734775378	0.7854890706293229	0.722223800800514
0.0013521968718104634	0.7854644776935631	0.721766533281699
0.0013531937821940727	0.7853576619615054	0.7196657213480444
0.0013540692323498393	0.7852783568910708	0.7179694083429664
0.001354855332815606	0.7852047058816624	0.7162719675608348
0.001355562027874094	0.7851347395975732	0.7145337731812252
0.0013561969038205601	0.7850681227946849	0.7127476347200866
0.0013567667672292432	0.7850046611803637	0.7109090240234417
0.0013572778163181483	0.7849441800214537	0.7090134720060327
0.001357735699427196	0.7848865142136484	0.7070563413174288
0.001358145561109035	0.7848315074211206	0.7050328071752335
0.0013585120840005095	0.7847790119148274	0.7029378555102881
0.001358839527390953	0.7919564501226546	0.7492095453584882
0.0013637813743499227	0.7919452205167378	0.7490965729642864
0.001366467329679194	0.791768409619762	0.7472078017247653
0.001368775573862888	0.7916655622942196	0.7460003283562846
0.0013708608717382601	0.791572479991717	0.744825364231137
0.0013727509392379485	0.7914839405110573	0.743624442633968
0.0013744617138365333	0.7913993494332303	0.7423901763333315
0.0013760093160450168	0.7913185391309874	0.7411203845412463
0.0013774082806538928	0.7912412859410801	0.7398118880950634
0.0013786719622968892	0.7911673906958455	0.7384616201656422
0.0013798125857515404	0.791096664730048	0.7370664178264184
0.0013808413432831468	0.7910289316479805	0.7356230504134553
0.0013817684759143741	0.7909640264114969	0.7341282044992358
0.0013826033499387922	0.7909017948635122	0.7325784764558505
0.0013833545689693394	0.7908420931417188	0.7309703626894863
0.00138403002145989	0.790784783806918	0.7293001497715158
0.0013846368232144116	0.7907297355871062	0.7275638733184788
0.0013851814634148597	0.7906768324562465	0.7257576024178977
0.0013856698618825007	0.7906259669121011	0.7238772740586987
0.001386107415905154	0.7905770389398203	0.7219186676947694
0.001386499043046967	0.7905299554655274	0.7198773921752525
0.0013868492206178913	0.7904846298655862	0.7177488733866199
0.0013871620220971023	0.7978164766845441	0.7675031079790751
0.0014455053554476547	0.7978110901471104	0.7674806027396693
0.0014694084503510591	0.7967264770618181	0.7628411248219543
0.0014895966004316956	0.7962299452051642	0.76064055608335
0.0015081065439445107	0.7957826607666827	0.7586131485599641
0.001525120344723048	0.7953473652910964	0.7565962109370976
0.001540757492551887	0.794923526135399	0.7545878807700095
0.0015551320016180465	0.7945116298534889	0.7525910642779696
0.0015683452642548856	0.7941119496905227	0.7506078145215072
0.0015804894395022497	0.7937247587191081	0.7486403190841316
0.0015916484889882208	0.7933502794687755	0.7466906471182333
0.0016018992603851014	0.7929886862776018	0.7447607430905395
0.0016113123100629269	0.7926401009368942	0.7428523832975186
0.0016199525753435387	0.7923045915506275	0.7409671450609724
0.0016278799379162343	0.7919821726760307	0.7391063801217129
0.0016351496941363368	0.7916728062947187	0.7372711906964865
0.0016418129608435136	0.79137640380397	0.7354624102007002
0.001647917026609369	0.7910928285367129	0.7336805866932231
0.0016535056609779135	0.7908218988366612	0.7319259699289349
0.0016586193880355387	0.790563391501983	0.7301985015834366
0.001663295733027294	0.7903170455752148	0.7284978091466157
0.0016675694444033928	0.7900825662749086	0.7268232026925661
0.0016714726958027561	0.7898596290940857	0.7251736751348214
0.0016750352708638802	0.7896478839591357	0.7235479056432038
0.0016782847336522866	0.7894469593833136	0.7219442660519811
0.001681246584643217	0.7892564665250412	0.7203608297718678
0.0016839444064157545	0.7890760032063378	0.7187953837970423
0.001686399998235164	0.7889051576933368	0.7172454422577142
0.0016886335007274473	0.7887435123122585	0.7157082620243802
0.0016906635130798124	0.7885906468640382	0.7141808600008916
0.0016925072011885396	0.7884461417039035	0.7126600306223113
0.001694180399317801	0.7883095806167542	0.7111423645304282
0.0016956977045118667	0.7881805533445099	0.7096242666940592
0.0016970725651327952	0.7880586578477357	0.7081019744380654
0.0016983173632509922	0.7879435022348417	0.7065715742459653
0.0016994434919163492	0.7878347064162127	0.7050290175790369
0.0017004614271275567	0.7877319034403749	0.7034701347296967
0.0017013807949832831	0.7876347405686672	0.7018906469869529
0.0017022104345810283	0.787542880094498	0.7002861768386692
0.0017029584565910502	0.7874559999000105	0.6986522556243165
0.001703632297805768	0.7873737938035821	0.6969843290483361
0.001704238772262076	0.7872959717202735	0.6952777606338079
0.0017047842146902933	0.7872222596180595	0.6935278323026073
0.0017052743152666636	0.7871523867070537	0.691729404292686
0.0017057142666171443	0.7870861106951264	0.6898775101813487
0.0017061088135179598	0.7870232057590145	0.6879671186939588
0.0017064622887657357	0.7869634606615635	0.6859930953216685
0.0017067786457324729	0.7869066780952836	0.6839501906158751
0.001707061488576919	0.7942645357111495	0.7287689442018153
0.0017163919884702686	0.7942506235897736	0.7286609933384448
0.0017207118729610262	0.7937713579431812	0.7247891146416989
0.0017243230030552982	0.7935342756607301	0.7227472334020195
0.0017275712297181842	0.7933273071570354	0.7208818279554372
0.0017305137672336875	0.7931333322840363	0.7190520770857228
0.001733175079151604	0.79295032847354	0.7172418659712215
0.0017355813453968345	0.7927779891147627	0.7154502391892328
0.001737755786605129	0.7926157553265861	0.7136735119518055
0.0017397196541113062	0.7924631146458788	0.711908110845245
0.0017414922970123842	0.7923195549607024	0.7101501075442099
0.0017430913514460149	0.7921845750237073	0.7083953265377153
0.0017445328905691605	0.7920576854349515	0.7066393551651223
0.0017458315630420119	0.7919384108883983	0.7048775706857161
0.001747000717778565	0.7918262918947403	0.7031051636598391
0.0017480526052281646	0.791720886256465	0.7013171603592743
0.0017489983456420398	0.7916217617504069	0.6995082821013365
0.0017498479952041067	0.7915285086034267	0.6976731359128081
0.0017506107059810912	0.7914407438393816	0.6958063237194175
0.0017512948088586188	0.7913581050906106	0.6939023494393263
0.0017519078844134507	0.7912802501825034	0.6919556173725766
0.0017524568273647517	0.7912068569949977	0.6899604355586764
0.0017529479054962625	0.7911376231766443	0.6879110166104401
0.0017533868136138417	0.7910722657079516	0.6858014756997692
0.001753778722962463	0.7985345791680291	0.7306366755679297
0.0017619687068319758	0.7985135869103949	0.7304611686924398
0.0017661383308407103	0.798054646798331	0.7264757785993367
0.0017696964618199192	0.7978041312473789	0.7241672102727759
0.00177291513696496	0.797579671699083	0.7220066282234207
0.001775837933004384	0.7973669241321895	0.7198685005327696
0.001778488531856687	0.7971646100596064	0.7177436102906212
0.0017808912252849226	0.7969725480931982	0.7156331977841408
0.0017830678366564517	0.7967903622001008	0.7135363571632491
0.0017850384160059479	0.7966177010832761	0.7114522262211389
0.0017868213101836616	0.7964542029164932	0.7093795744907888
0.0017884333168965922	0.7962995029678792	0.7073168520388661
0.0017898898104599318	0.7961532340528715	0.7052621608758006
0.0017912048592627723	0.7960150282371868	0.7032132444790916
0.0017923913324792151	0.795884518322697	0.7011674785601986
0.0017934609983943032	0.7957613394016012	0.6991218672262721
0.0017944246142765677	0.7956451303328167	0.6970730428027916
0.0017952920089630297	0.7955355352097407	0.6950172705935435
0.0017960722599185252	0.7954322047608422	0.6929504578018622
0.001796773563624165	0.795334784730578	0.6908678801010721
0.0017974033656879042	0.7952429406691407	0.6887646531734404
0.0017979684553563347	0.7951563526160644	0.6866356596357979
0.0017984750220792947	0.7950747119294735	0.6844754902602935
0.0017989287051590431	0.7949977217605072	0.6822784565910133
0.0017993346393773712	0.7949250976987848	0.6800386098324587
0.001799697496980366	0.7948565682784338	0.6777497589745265
0.0018000215263881336	0.8024661477112701	0.723114150518898
0.0018027488454695941	0.8024426287199097	0.7227993122340349
0.0018044114384117296	0.8022371169351068	0.7199210134916938
0.0018058538490508948	0.8021042595376616	0.717922119342871
0.0018071517247382385	0.801983421268323	0.715992143332348
0.0018083229791203109	0.8018695021757937	0.7140591440127134
0.0018093785521943152	0.8017617462148583	0.7121127506798074
0.0018103292162209939	0.801659896226632	0.7101501470795264
0.0018111847188572304	0.8015636286927637	0.7081669426271597
0.0018119540587691694	0.801472637512557	0.7061585971864407
0.0018126453294847176	0.8013866146128462	0.704120002371776
0.0018132659083125377	0.8013052751271229	0.7020460363489401
0.0018138225237416422	0.8012283459519287	0.6999313469819153
0.0018143213093153939	0.801155565399569	0.6977703497199018
0.0018147678526547906	0.8010866836114471	0.6955572423806174
0.0018151672406653467	0.8010214628955246	0.6932860192109154
0.0018155241011689176	0.8087635809160028	0.7403659072922221
0.0018197904480700849	0.8087438123157489	0.7401238806549914
0.0018222190724833743	0.8084969649809637	0.7369524730551416
0.0018243152008682413	0.8083464736270648	0.734867746592026
0.0018262065138970845	0.8082095512462287	0.7328559349662653
0.0018279182646627496	0.8080794538384422	0.7308297548257344
0.0018294653792028269	0.8079554358091526	0.7287809452414783
0.001830862829547918	0.8078373382291556	0.7267097398815977
0.0018321241221580826	0.8077249114760897	0.7246147379386911
0.0018332616526762812	0.8076179274687454	0.7224946352955871
0.0018342867575043636	0.8075161606202916	0.7203478635793592
0.0018352098045914776	0.8074193906098333	0.7181725981295429
0.0018360403256161032	0.8073274016147538	0.7159667040378986
0.0018367870410086584	0.8072399762448949	0.7137275397296536
0.0018374578250655365	0.8071568991249893	0.7114519714057672
0.001838059858878859	0.807077968661763	0.7091366692548344
0.0018385996930310722	0.807002988388654	0.7067778901926547
0.0018390832995371833	0.8069317664764915	0.7043714497526035
0.0018395161192639369	0.8068641159579577	0.7019127171060371
0.0018399031056803175	0.8067998550632471	0.6993966188056221
0.0018402487652491777	0.8147186217480309	0.749160067724063
0.0018421368136537688	0.8146994356967823	0.7487806667472614
0.001843386438231766	0.8145899475350312	0.746476222659113
