# t	N(t)
4.842644728581652929e-06 1.000000000000000000e+03
1.073257808521323670e-05 1.000000000000000000e+03
6.343460072543054338e-05 1.000000000000000000e+03
8.054410352418821142e-05 1.000000000000000000e+03
1.506651492479848967e-04 1.000000000000000000e+03
2.916907264292066581e-04 1.000000000000000000e+03
4.538909419428292704e-04 9.999925925925924730e+02
6.676988971480727264e-04 1.000000000000000000e+03
9.946630729959059919e-04 9.999500000000000455e+02
1.593854711561435225e-03 9.999453030303029664e+02
2.401979112225290092e-03 9.998478680169160953e+02
3.955665763911040030e-03 9.992650861672060500e+02
6.213752307421839191e-03 9.972819510355705006e+02
9.710934695613761963e-03 9.879882418146798955e+02
1.478957098509345834e-02 9.585374432559694924e+02
2.259995690116309991e-02 8.859352095489670091e+02
3.421505870569158114e-02 7.739611419944324098e+02
5.226738430500789401e-02 6.541673330622418234e+02
8.099299043444770085e-02 5.507263793376782814e+02
1.255505950856005970e-01 4.682541652951307469e+02
1.994546598816135385e-01 4.003108838448530378e+02
3.155994143371143590e-01 3.428189392208493018e+02
4.958984723658618199e-01 2.931435460393836365e+02
7.711766492069307422e-01 2.509685098956885554e+02
1.213162689555285167e+00 2.156478037630682252e+02
1.882988351292421259e+00 1.887440560833848622e+02
2.954503162778533198e+00 1.665144427410639878e+02
4.692228918357711720e+00 1.467961140868721372e+02
7.233892752482203647e+00 1.295764910795826665e+02
1.128294317295160454e+01 1.140612029439978841e+02
1.779767802005661537e+01 1.003284850599664679e+02
2.745898882649494865e+01 8.854904197597674909e+01
4.338012596141074084e+01 7.806205083908557185e+01
6.785983139905269468e+01 6.891754689906170483e+01
1.067690038367411915e+02 6.021013443733492210e+01
1.636984294640409701e+02 5.234437771681200502e+01
2.575484911298692055e+02 4.477765192891233426e+01
4.016568775133652025e+02 3.798028240632517338e+01
6.327184197997959245e+02 3.181008360609035179e+01
9.963198395219427539e+02 2.557900040469717595e+01
1.576540134211476243e+03 1.845302581065817193e+01
2.309540826031466167e+03 1.000265845956703892e+01
2.771519047263140692e+03 4.632622627263556225e+00
3.918076655708955968e+03 1.999556737588652489e+00
nan nan
nan nan
nan nan
nan nan
nan nan
nan nan
