# t	N(t)
5.285669743421795404e-06 1.000000000000000000e+03
1.083223822178917707e-05 1.000000000000000000e+03
4.553546567339654318e-04 1.000000000000000000e+03
7.022770004009346685e-04 1.000000000000000000e+03
9.879762297628064387e-04 1.000000000000000000e+03
1.580121798501171737e-03 1.000000000000000000e+03
2.507044136893957047e-03 9.999715184700883128e+02
3.959053967084029749e-03 9.995828199158459029e+02
6.095104892515138678e-03 9.975815977956859797e+02
9.540189268891946170e-03 9.895218980156942052e+02
1.462178762717458377e-02 9.637721940021237970e+02
2.257876578517483898e-02 8.984509113614524267e+02
3.471209015271643772e-02 7.912631330121654401e+02
5.373020156326472480e-02 6.670756327720646368e+02
8.253671637421279572e-02 5.632773761165509541e+02
1.278897414563802681e-01 4.815398988797381321e+02
1.989761701652472403e-01 4.163929155607274879e+02
3.131790717868795371e-01 3.573474046668052324e+02
4.940339004818583568e-01 3.075617944343940735e+02
7.840866402277136826e-01 2.705575966712088416e+02
1.219229456948564660e+00 2.421502049222021924e+02
1.898729675957605334e+00 2.186999464127666215e+02
2.960003272974529587e+00 1.985413953034847339e+02
4.668162857332246674e+00 1.795782095905368010e+02
7.210603107203679585e+00 1.636806237727067241e+02
1.134747562788929187e+01 1.488769188791734734e+02
1.759231574925999197e+01 1.355377799154965999e+02
2.783713748521390130e+01 1.231601613411526444e+02
4.318850269568875433e+01 1.116954583850869511e+02
6.642360312458279736e+01 1.001402954390526929e+02
1.047656542431133602e+02 8.946675047598519370e+01
1.654552732896497957e+02 8.010193765492780926e+01
2.566249642560472353e+02 7.168870439309763753e+01
4.010437139626295107e+02 6.347895265727981950e+01
6.268363628342073071e+02 5.580107630799903973e+01
9.706976486395047914e+02 4.903293871403190707e+01
1.557486739210040241e+03 4.209602881370872041e+01
2.421124888238859057e+03 3.590574720771206785e+01
3.737728686061069311e+03 2.988563403343689018e+01
5.948057840669035613e+03 2.314191429544574774e+01
9.624694797339059733e+03 1.519071688374749840e+01
1.288895892981137331e+04 8.470125614922876522e+00
1.676462065330730911e+04 2.315296166001437506e+00
nan nan
nan nan
nan nan
