# t	N(t)
5.444941723676703093e-06 9.999750000000000227e+02
1.088988344735340619e-05 9.999500000000000455e+02
1.783534565329451197e-04 9.999333333333332803e+02
2.337082522159874133e-04 9.999500000000000455e+02
3.809206875656883902e-04 9.999500000000000455e+02
6.195950652938586644e-04 9.999500000000000455e+02
9.490315281212708103e-04 9.999500000000000455e+02
1.551326362368779521e-03 9.999500000000000455e+02
2.564162894993852505e-03 9.999072306865716655e+02
3.861822129046817934e-03 9.993683468157736343e+02
6.190715423758597069e-03 9.969523407103124555e+02
9.716904848783397899e-03 9.869844254882957557e+02
1.483175095692587306e-02 9.544628543725914369e+02
2.258857529726257529e-02 8.792362293219669027e+02
3.425198926510297781e-02 7.642762148163061511e+02
5.250395490655367092e-02 6.416620083577333844e+02
8.235849789559462897e-02 5.352184702217545009e+02
1.273159851119792241e-01 4.542050144852925087e+02
2.015175927579274107e-01 3.883514094520704703e+02
3.158462398061709919e-01 3.333550097846731433e+02
4.939234595143284778e-01 2.834833366736301059e+02
7.689414758632168168e-01 2.401325310363571077e+02
1.213000726687051500e+00 2.035347829264381971e+02
1.888678606255634662e+00 1.728566350936740719e+02
2.930119457034963570e+00 1.469722021947924304e+02
4.562060798130985972e+00 1.252823904169588332e+02
7.269309796795502265e+00 1.071659677623911193e+02
1.125463233484131464e+01 9.237592615202129309e+01
1.772740804755331467e+01 7.871549864470640046e+01
2.743556692949270470e+01 6.647074982904737794e+01
4.279813188372695265e+01 5.600101340478356349e+01
6.662297004286702418e+01 4.727970129774898567e+01
1.081227563784394476e+02 3.871879963765395871e+01
1.622356524118504524e+02 3.172909003367928449e+01
2.614118051935228095e+02 2.398233136952064370e+01
4.203501960729487905e+02 1.519235230970505235e+01
5.507068655958468071e+02 8.393690940949445789e+00
7.269149797869260965e+02 2.171302078140801672e+00
nan nan
nan nan
nan nan
nan nan
nan nan
nan nan
nan nan
nan nan
nan nan
nan nan
